"Time (s)","X (hPa)"
-5.239132084E-1,1.014185486E3
4.809197916E-1,1.014179993E3
1.485709792E0,1.014174500E3
2.490540792E0,1.014164124E3
3.495366792E0,1.014158936E3
3.847650792E0,1.014151001E3
4.919502792E0,1.014138947E3
5.991378792E0,1.014121933E3
7.063210792E0,1.014099274E3
8.135112792E0,1.014067307E3
9.207019792E0,1.014029999E3
1.027891179E1,1.013993530E3
1.135078979E1,1.013954544E3
1.242266379E1,1.013916321E3
1.349448579E1,1.013879700E3
1.456633479E1,1.013850174E3
1.563816979E1,1.013825302E3
1.670998879E1,1.013799210E3
1.778183379E1,1.013768463E3
1.885374579E1,1.013741302E3
1.992561179E1,1.013711853E3
2.099744679E1,1.013680954E3
2.206926579E1,1.013657150E3
2.314105979E1,1.013643799E3
2.421288779E1,1.013634033E3
2.528472479E1,1.013629379E3
2.635660279E1,1.013626404E3
2.742850879E1,1.013626404E3
2.850040979E1,1.013626785E3
2.957230579E1,1.013634186E3
3.064424679E1,1.013646011E3
3.171614979E1,1.013661270E3
3.278800179E1,1.013683472E3
3.385989079E1,1.013702850E3
3.493176579E1,1.013723450E3
3.600363679E1,1.013742218E3
3.707551879E1,1.013766861E3
3.814738779E1,1.013792877E3
3.921927479E1,1.013825150E3
4.029116179E1,1.013847275E3
4.136307679E1,1.013866577E3
4.243498179E1,1.013882828E3
4.375941979E1,1.013889923E3
4.509187979E1,1.013890991E3
4.642427779E1,1.013897171E3
4.775662079E1,1.013904419E3
4.908904079E1,1.013907394E3
5.042148979E1,1.013911057E3
5.175380079E1,1.013914642E3
5.308616979E1,1.013919830E3
5.441865079E1,1.013934174E3
5.575115979E1,1.013948212E3
5.708361879E1,1.013963165E3
5.841608379E1,1.013976669E3
5.974855079E1,1.013988647E3
6.108106379E1,1.013989944E3
6.241361779E1,1.013991470E3
6.374614779E1,1.013991852E3
6.507868779E1,1.013992233E3
6.641121879E1,1.013994141E3
6.774373879E1,1.013994141E3
6.907624679E1,1.013993301E3
7.040876379E1,1.013992004E3
7.174131079E1,1.013991394E3
7.307384279E1,1.013987045E3
7.440628579E1,1.013983383E3
7.573877279E1,1.013973923E3
7.707124379E1,1.013961716E3
7.840370279E1,1.013948288E3
7.973617879E1,1.013936081E3
8.106862179E1,1.013920517E3
8.240105579E1,1.013905945E3
8.373358479E1,1.013894196E3
8.506611779E1,1.013880539E3
8.639865379E1,1.013859482E3
8.773121079E1,1.013836060E3
8.906371579E1,1.013817368E3
9.039620879E1,1.013798828E3
9.172880779E1,1.013781967E3
9.306139879E1,1.013765335E3
9.439404979E1,1.013745804E3
9.572669479E1,1.013722153E3
9.705398179E1,1.013701782E3
9.812595979E1,1.013677750E3
9.919789879E1,1.013658371E3
1.002697728E2,1.013645554E3
1.013417108E2,1.013643646E3
1.024136448E2,1.013643646E3
1.034855818E2,1.013648911E3
1.045575508E2,1.013659439E3
1.056294558E2,1.013672867E3
1.067013628E2,1.013691025E3
1.077733188E2,1.013715057E3
1.088452238E2,1.013738174E3
1.099171208E2,1.013764954E3
1.109889978E2,1.013799667E3
1.120608378E2,1.013834534E3
1.131327178E2,1.013876648E3
1.142046538E2,1.013928757E3
1.152765708E2,1.013984528E3
1.163485028E2,1.014039993E3
1.174204518E2,1.014105377E3
1.184923678E2,1.014163589E3
1.195642778E2,1.014223862E3
1.206362378E2,1.014272232E3
1.217082288E2,1.014321060E3
1.229767858E2,1.014376526E3
1.243093248E2,1.014441681E3
1.256418548E2,1.014515839E3
1.269744338E2,1.014595871E3
1.283069748E2,1.014687805E3
1.296395848E2,1.014771652E3
1.309721478E2,1.014847565E3
1.323048388E2,1.014906311E3
1.336374328E2,1.014970932E3
1.349700708E2,1.015032196E3
1.363026528E2,1.015095444E3
1.376352358E2,1.015163193E3
1.389678108E2,1.015241013E3
1.403004448E2,1.015322342E3
1.416330718E2,1.015412598E3
1.429657048E2,1.015618286E3
1.442983208E2,1.015930862E3
1.456307418E2,1.016062241E3
1.469632398E2,1.016062241E3
1.482957978E2,1.015787735E3
1.496283418E2,1.015586777E3
1.509609048E2,1.015558929E3
1.522935038E2,1.015586777E3
1.536261858E2,1.015512009E3
1.549588178E2,1.015484772E3
1.562914888E2,1.015398941E3
1.576241258E2,1.014861908E3
1.589567518E2,1.014415588E3
1.602894118E2,1.014370346E3
1.616220618E2,1.014370346E3
1.629546808E2,1.014792404E3
1.642872528E2,1.015300369E3
1.656198158E2,1.015732040E3
1.669524018E2,1.016128006E3
1.682850738E2,1.016128006E3
1.696176748E2,1.015993500E3
1.709502348E2,1.015668793E3
1.722827948E2,1.015461502E3
1.736152928E2,1.015345917E3
1.749479218E2,1.015345917E3
1.762805058E2,1.015364456E3
1.776130308E2,1.015406265E3
1.789456188E2,1.015476227E3
1.802781418E2,1.015489044E3
1.816107458E2,1.015570297E3
1.829433518E2,1.015582886E3
1.842759798E2,1.015644684E3
1.856085248E2,1.015684357E3
1.869411568E2,1.015740204E3
1.882738208E2,1.015792389E3
1.896064468E2,1.015897064E3
1.909391028E2,1.016018753E3
1.922717378E2,1.016129837E3
1.936043458E2,1.016229248E3
1.949369338E2,1.016319733E3
1.962694648E2,1.016345062E3
1.976021188E2,1.016347351E3
1.989347908E2,1.016345062E3
2.002675038E2,1.016302490E3
2.016001018E2,1.016218719E3
2.029327188E2,1.016140823E3
2.042651978E2,1.016059494E3
2.055977338E2,1.015975723E3
2.069302988E2,1.015938034E3
2.082628578E2,1.015925827E3
2.095954728E2,1.015919647E3
2.109280148E2,1.015919342E3
2.122606118E2,1.015907516E3
2.135932338E2,1.015890121E3
2.149258038E2,1.015886230E3
2.162583638E2,1.015862656E3
2.175908398E2,1.015834656E3
2.189234068E2,1.015814743E3
2.202560368E2,1.015793915E3
2.215886098E2,1.015793915E3
2.229212718E2,1.015799713E3
2.242539378E2,1.015824356E3
2.255866468E2,1.015856400E3
2.269193858E2,1.015895615E3
2.282520388E2,1.015923080E3
2.295847798E2,1.015945435E3