"Time (s)","X (hPa)"
-5.677915833E-1,1.016990509E3
4.375384167E-1,1.016992493E3
1.442872417E0,1.016994400E3
2.448219417E0,1.016996994E3
3.453549417E0,1.016999664E3
3.805213417E0,1.016999664E3
4.877608417E0,1.017002258E3
5.950015417E0,1.017004166E3
7.022456417E0,1.017011871E3
8.094880417E0,1.017019806E3
9.167234417E0,1.017026596E3
1.023962642E1,1.017026596E3
1.131198342E1,1.017025833E3
1.238435842E1,1.017019348E3
1.345670542E1,1.017010880E3
1.452909342E1,1.017008514E3
1.560152842E1,1.017007065E3
1.667392042E1,1.017007065E3
1.774638042E1,1.017000275E3
1.881883642E1,1.016986923E3
1.989128042E1,1.016965256E3
2.096372442E1,1.016930847E3
2.203616142E1,1.016895447E3
2.335336642E1,1.016859741E3
2.468686742E1,1.016821442E3
2.602020342E1,1.016783066E3
2.735359942E1,1.016745148E3
2.868705842E1,1.016704559E3
3.002055942E1,1.016671066E3
3.135396142E1,1.016648331E3
3.268733842E1,1.016641006E3
3.402076142E1,1.016641006E3
3.535410842E1,1.016652527E3
3.668745742E1,1.016672974E3
3.802090642E1,1.016697159E3
3.935431442E1,1.016725998E3
4.068780342E1,1.016755142E3
4.202123642E1,1.016789169E3
4.335473442E1,1.016821365E3
4.468816542E1,1.016850662E3
4.602153442E1,1.016879272E3
4.735490242E1,1.016907959E3
4.868829042E1,1.016939316E3
5.002172942E1,1.016961823E3
5.135516242E1,1.016986618E3
5.268862742E1,1.017012100E3
5.402217742E1,1.017043228E3
5.535566142E1,1.017076187E3
5.668917742E1,1.017112122E3
5.802268442E1,1.017144318E3
5.935615542E1,1.017171021E3
6.068958942E1,1.017189636E3
6.202300142E1,1.017196121E3
6.335641842E1,1.017207870E3
6.468990442E1,1.017219086E3
6.602337442E1,1.017228241E3
6.735682142E1,1.017231903E3
6.869021842E1,1.017235107E3
7.002367442E1,1.017237625E3
7.135711842E1,1.017246399E3
7.269048542E1,1.017253799E3
7.402389442E1,1.017261581E3
7.535735842E1,1.017261581E3
7.669077242E1,1.017260971E3
7.802413442E1,1.017254028E3
7.935753042E1,1.017246399E3
8.069096742E1,1.017242508E3
8.202449142E1,1.017242508E3
8.335797442E1,1.017245026E3
8.469143742E1,1.017245407E3
8.602488842E1,1.017249756E3
8.735842142E1,1.017258682E3
8.869192742E1,1.017259750E3
9.002535642E1,1.017265396E3
9.135881142E1,1.017272797E3
9.269229642E1,1.017272797E3
9.402574542E1,1.017264328E3
9.535920242E1,1.017260361E3
9.669268342E1,1.017257004E3
9.802620242E1,1.017257004E3
9.935965542E1,1.017271042E3
1.006931254E2,1.017286835E3
1.020266564E2,1.017298050E3
1.033601604E2,1.017306824E3
1.046936314E2,1.017306824E3
1.060270904E2,1.017303467E3
1.073605864E2,1.017301788E3
1.086941364E2,1.017301788E3
1.100275904E2,1.017302628E3
1.113610354E2,1.017302628E3
1.126945904E2,1.017302628E3
1.140281014E2,1.017316360E3
1.153615374E2,1.017333374E3
1.166949694E2,1.017352066E3
1.180283994E2,1.017399673E3
1.193619374E2,1.017462234E3
1.206954564E2,1.017518387E3
1.220289754E2,1.017568970E3
1.233624334E2,1.017616730E3
1.246959054E2,1.017637558E3
1.260293674E2,1.017637558E3
1.273628444E2,1.017631912E3
1.286963914E2,1.017625122E3
1.300299124E2,1.017619324E3
1.313633194E2,1.017616577E3
1.326967514E2,1.017615051E3
1.340302034E2,1.017613602E3
1.353636684E2,1.017610703E3
1.366971624E2,1.017607498E3
1.380307114E2,1.017603302E3
1.393642284E2,1.017593536E3
1.406976924E2,1.017579651E3
1.420311304E2,1.017534790E3
1.433646314E2,1.017477798E3
1.446981344E2,1.017422485E3
1.460315934E2,1.017370834E3
1.473650454E2,1.017321014E3
1.486984424E2,1.017296143E3
1.500318494E2,1.017290268E3
1.513652444E2,1.017285233E3
1.526985684E2,1.017270203E3
1.540318924E2,1.017250214E3
1.553652604E2,1.017227707E3
1.566985924E2,1.017201004E3
1.580320014E2,1.017176819E3
1.593653294E2,1.017162247E3
1.606986774E2,1.017150269E3
1.620321774E2,1.017144165E3
1.633656554E2,1.017143860E3
1.646991384E2,1.017143097E3
1.660326254E2,1.017143097E3
1.673661614E2,1.017154083E3
1.686996834E2,1.017169876E3
1.700332084E2,1.017186203E3
1.713666014E2,1.017201233E3
1.727000574E2,1.017210846E3
1.740334144E2,1.017216339E3
1.753668654E2,1.017216339E3
1.767002824E2,1.017215729E3
1.780337514E2,1.017213440E3
1.793672414E2,1.017213440E3
1.807006124E2,1.017216949E3
1.820340664E2,1.017233658E3
1.833675184E2,1.017249985E3
1.847009624E2,1.017256546E3
1.860344914E2,1.017266846E3
1.873680414E2,1.017268524E3
1.887016334E2,1.017268524E3
1.900351374E2,1.017253571E3
1.913686134E2,1.017252502E3
1.927020664E2,1.017249451E3
1.940355244E2,1.017245178E3
1.953688804E2,1.017245178E3
1.967022834E2,1.017264786E3
1.980357814E2,1.017287216E3
1.993692314E2,1.017310410E3
2.007027034E2,1.017352066E3
2.020362214E2,1.017418060E3
2.033696904E2,1.017473602E3
2.047030724E2,1.017527618E3
2.060365344E2,1.017579422E3
2.073699404E2,1.017615051E3
2.087033924E2,1.017620697E3
2.100368234E2,1.017620697E3
2.113703624E2,1.017615280E3
2.127038284E2,1.017610703E3
2.140372624E2,1.017607422E3
2.153706634E2,1.017603683E3
2.167041504E2,1.017600937E3
2.180376344E2,1.017599945E3
2.193711394E2,1.017597961E3
2.207046304E2,1.017594681E3
2.220380714E2,1.017582245E3
2.233714874E2,1.017552948E3
2.247048114E2,1.017514267E3
2.260382244E2,1.017464752E3
2.273716014E2,1.017416763E3
2.287049804E2,1.017373199E3
2.300384604E2,1.017337646E3
2.313719164E2,1.017302628E3
2.327054404E2,1.017276077E3
2.340390074E2,1.017241592E3
2.353725444E2,1.017208176E3
2.367060244E2,1.017190018E3
2.380394664E2,1.017175674E3
2.393729024E2,1.017171936E3
2.407063004E2,1.017171936E3
2.420397854E2,1.017185822E3
2.433732644E2,1.017200699E3
2.447067104E2,1.017218018E3
2.460401114E2,1.017237167E3
2.473735454E2,1.017255096E3
2.487069224E2,1.017264786E3
2.500404344E2,1.017265625E3
2.513739364E2,1.017266235E3
2.527074954E2,1.017270279E3
2.540410774E2,1.017270279E3
2.553746924E2,1.017262650E3
2.567082494E2,1.017255936E3
2.580417444E2,1.017246170E3
2.593752324E2,1.017230911E3
2.607087334E2,1.017219696E3
2.620422264E2,1.017219696E3
2.633756174E2,1.017239532E3
2.647090194E2,1.017248306E3
2.660425474E2,1.017255478E3
2.673760574E2,1.017262039E3
2.687095854E2,1.017262039E3
2.700431744E2,1.017244949E3
2.713767004E2,1.017241974E3
2.727101294E2,1.017241364E3
2.740435574E2,1.017240601E3
2.753769704E2,1.017240601E3