"Time (s)","X (hPa)"
-5.075267500E-1,1.017820206E3
5.313742500E-1,1.017822647E3
1.570327250E0,1.017825089E3
2.609240250E0,1.017827759E3
3.648146250E0,1.017830505E3
4.687113250E0,1.017830505E3
5.198316250E0,1.017830734E3
6.237300250E0,1.017830734E3
7.276233250E0,1.017830734E3
8.315218250E0,1.017828598E3
9.354234250E0,1.017824478E3
1.039316725E1,1.017818069E3
1.143215425E1,1.017810059E3
1.247107325E1,1.017803268E3
1.351003125E1,1.017797775E3
1.454898125E1,1.017791290E3
1.558800425E1,1.017789230E3
1.662701925E1,1.017789230E3
1.766597225E1,1.017793961E3
1.870495225E1,1.017794266E3
1.974393725E1,1.017794266E3
2.078292125E1,1.017785721E3
2.182188425E1,1.017779465E3
2.286082925E1,1.017774582E3
2.389975125E1,1.017774582E3
2.493873725E1,1.017788849E3
2.597777525E1,1.017820969E3
2.701666825E1,1.017859802E3
2.805570125E1,1.017894287E3
2.909471225E1,1.017925568E3
3.013363425E1,1.017953568E3
3.117261725E1,1.017973404E3
3.221156325E1,1.017986069E3
3.325050525E1,1.017994919E3
3.428945825E1,1.018005524E3
3.532841825E1,1.018014145E3
3.636736025E1,1.018021088E3
3.740632825E1,1.018022079E3
3.844528725E1,1.018022079E3
3.948422325E1,1.018015366E3
4.052314125E1,1.018001938E3
4.156211225E1,1.017983551E3
4.260116425E1,1.017961349E3
4.364023425E1,1.017944565E3
4.467933025E1,1.017924881E3
4.571838925E1,1.017901688E3
4.675743525E1,1.017870789E3
4.779650325E1,1.017842407E3
4.883561525E1,1.017812805E3
4.987470225E1,1.017790909E3
5.091377125E1,1.017776871E3
5.195284825E1,1.017776642E3
5.299180925E1,1.017775345E3
5.403084025E1,1.017769547E3
5.506988425E1,1.017758408E3
5.610894825E1,1.017750092E3
5.714798825E1,1.017745590E3
5.818702425E1,1.017745590E3
5.922610425E1,1.017753296E3
6.026522425E1,1.017764740E3
6.130435025E1,1.017777023E3
6.234347325E1,1.017786331E3
6.338260825E1,1.017796555E3
6.442169825E1,1.017802887E3
6.546077525E1,1.017806396E3
6.649982825E1,1.017806396E3
6.753889025E1,1.017804260E3
6.857791225E1,1.017798538E3
6.961695625E1,1.017791519E3
7.065595025E1,1.017781754E3
7.169500825E1,1.017779541E3
7.273403825E1,1.017779007E3
7.377310925E1,1.017777481E3
7.481212825E1,1.017773438E3
7.585116925E1,1.017772064E3
7.689019825E1,1.017767410E3
7.792929225E1,1.017755127E3
7.896841425E1,1.017743454E3
8.000757025E1,1.017739029E3
8.104669325E1,1.017731705E3
8.208582725E1,1.017727203E3
8.312496425E1,1.017724228E3
8.416409725E1,1.017715836E3
8.520326825E1,1.017703629E3
8.624238925E1,1.017694397E3
8.728160525E1,1.017684097E3
8.832086125E1,1.017676697E3
8.936009025E1,1.017676697E3
9.039930825E1,1.017680817E3
9.143853525E1,1.017683182E3
9.247773925E1,1.017690582E3
9.351694025E1,1.017697372E3
9.455613325E1,1.017701187E3
9.559533925E1,1.017701263E3
9.663456525E1,1.017701187E3
9.767370525E1,1.017693558E3
9.871278125E1,1.017685318E3
9.975183025E1,1.017679062E3
1.007909652E2,1.017670059E3
1.018300952E2,1.017661057E3
1.028692252E2,1.017652817E3
1.039083612E2,1.017643967E3
1.049474452E2,1.017627792E3
1.059865392E2,1.017616272E3
1.070255842E2,1.017604752E3
1.080646312E2,1.017595978E3
1.091036182E2,1.017595978E3
1.101426012E2,1.017602768E3
1.111815722E2,1.017612610E3
1.122205012E2,1.017629852E3
1.132594472E2,1.017654953E3
1.142984382E2,1.017681274E3
1.153374262E2,1.017705841E3
1.163764182E2,1.017732086E3
1.174153662E2,1.017764359E3
1.184543612E2,1.017793198E3
1.194933472E2,1.017827454E3
1.205322882E2,1.017865067E3
1.215712952E2,1.017902756E3
1.226102792E2,1.017932663E3
1.236492922E2,1.017960358E3
1.246882552E2,1.017979202E3
1.257272302E2,1.017990723E3
1.267661452E2,1.018000107E3
1.278050482E2,1.018007965E3
1.288440442E2,1.018011246E3
1.298830182E2,1.018011246E3
1.309219682E2,1.018010101E3
1.319608712E2,1.018010101E3
1.329997882E2,1.018010406E3
1.340387402E2,1.018014526E3
1.350777132E2,1.018022919E3
1.361166692E2,1.018032608E3
1.371556662E2,1.018041000E3
1.381946122E2,1.018047180E3
1.392335972E2,1.018050385E3
1.402726262E2,1.018053284E3
1.413116372E2,1.018055420E3
1.423506342E2,1.018056870E3
1.433896642E2,1.018056870E3
1.444286892E2,1.018053894E3
1.454676932E2,1.018045502E3
1.465066902E2,1.018036728E3
1.475456842E2,1.018027725E3
1.485846692E2,1.018020859E3
1.496237032E2,1.018018265E3
1.506627072E2,1.018018265E3
1.517016522E2,1.018018112E3
1.527406182E2,1.018018112E3
1.537796602E2,1.018017883E3
1.548186822E2,1.018017578E3
1.558577202E2,1.018017502E3
1.568967222E2,1.018017578E3
1.579356892E2,1.018017883E3
1.589746522E2,1.018018951E3
1.600135582E2,1.018018951E3
1.610525242E2,1.018017731E3
1.620914802E2,1.018016052E3
1.631304332E2,1.018013077E3
1.641694492E2,1.018010712E3
1.652084782E2,1.018007660E3
1.662474932E2,1.018007507E3
1.672865052E2,1.018007507E3
1.683254763E2,1.018008804E3
1.693644492E2,1.018009949E3
1.704034162E2,1.018009949E3
1.714423582E2,1.018009491E3
1.724813132E2,1.018008270E3
1.735203272E2,1.018006058E3
1.745593582E2,1.018003464E3
1.755983822E2,1.018002625E3
1.766374152E2,1.018002625E3
1.776764892E2,1.018003006E3
1.787155312E2,1.018004837E3
1.797545422E2,1.018006973E3
1.807935042E2,1.018006973E3
1.818324602E2,1.018007278E3
1.828714352E2,1.018007507E3
1.839104092E2,1.018007889E3
1.849494142E2,1.018008499E3
1.859884572E2,1.018011398E3
1.870274512E2,1.018013458E3
1.880664172E2,1.018013611E3
1.891053972E2,1.018014374E3
1.901443912E2,1.018014374E3
1.911834142E2,1.018014374E3
1.922224482E2,1.018014374E3
1.932614752E2,1.018014374E3
1.943005252E2,1.018010330E3
1.953395922E2,1.018007050E3
1.963786762E2,1.018004684E3
1.974177652E2,1.017999039E3
1.984567972E2,1.017993011E3
1.994957812E2,1.017990189E3
2.005346832E2,1.017988815E3
2.015736582E2,1.017988815E3
2.026126782E2,1.017989120E3
2.036516942E2,1.017993240E3
2.046907462E2,1.018003159E3
2.057297482E2,1.018013916E3
2.067687912E2,1.018022842E3
2.078078212E2,1.018030090E3
2.088468182E2,1.018036270E3
2.098858432E2,1.018036270E3
2.109248002E2,1.018034363E3
2.119637772E2,1.018034363E3
2.130027082E2,1.018034363E3
2.140416262E2,1.018034515E3
2.150805212E2,1.018038788E3
2.161194382E2,1.018042297E3
2.171583182E2,1.018044128E3
2.181972732E2,1.018045731E3
2.192361992E2,1.018048401E3
2.202751392E2,1.018050690E3
2.213140962E2,1.018050766E3
2.223529732E2,1.018052292E3
2.233918652E2,1.018053207E3
2.244307832E2,1.018053207E3
2.254697602E2,1.018052216E3
2.265087122E2,1.018051834E3
2.275476382E2,1.018050385E3
2.285864962E2,1.018049316E3
2.296253652E2,1.018044891E3
2.306642072E2,1.018040390E3
2.317030932E2,1.018034058E3
2.327419832E2,1.018027420E3
2.337808132E2,1.018019638E3
2.348197412E2,1.018011169E3
2.358586632E2,1.017999725E3
2.368975342E2,1.017980957E3
2.379364102E2,1.017952576E3
2.389753202E2,1.017913361E3
2.400142242E2,1.017866058E3
2.410532182E2,1.017815018E3
2.420921832E2,1.017756500E3
2.431311652E2,1.017698288E3
2.441701502E2,1.017642822E3
2.452091082E2,1.017596588E3
2.462481152E2,1.017553635E3
2.472870572E2,1.017515411E3
2.483259912E2,1.017483139E3
2.493649392E2,1.017451477E3
2.504038202E2,1.017413177E3
2.514426982E2,1.017375946E3
2.524816772E2,1.017341843E3
2.535207002E2,1.017309189E3
2.545596782E2,1.017283783E3
2.555986392E2,1.017265396E3
2.566376502E2,1.017250595E3
2.576765402E2,1.017239227E3
2.587154522E2,1.017236099E3
2.597543892E2,1.017236099E3
2.607933402E2,1.017243347E3
2.618323412E2,1.017252808E3
2.628713572E2,1.017261276E3
2.639102702E2,1.017269363E3
2.649492092E2,1.017269363E3
2.659881072E2,1.017269363E3
2.670269922E2,1.017272415E3
2.680659542E2,1.017285385E3
2.691048512E2,1.017302856E3
2.701438562E2,1.017329636E3
2.711827772E2,1.017364578E3
2.722217272E2,1.017404175E3
2.732606312E2,1.017443314E3
2.742995332E2,1.017487030E3
2.753384032E2,1.017535477E3
2.763772782E2,1.017581100E3
2.774161652E2,1.017616196E3
2.784551172E2,1.017640915E3
2.794940172E2,1.017656097E3
2.805329472E2,1.017657166E3
2.815718952E2,1.017657166E3
2.826108282E2,1.017649765E3
2.836498032E2,1.017644577E3
2.846886942E2,1.017639084E3
2.857275692E2,1.017632446E3
2.867664182E2,1.017626190E3
2.878053112E2,1.017626190E3
2.888441172E2,1.017630310E3
2.898829812E2,1.017630310E3
2.909218572E2,1.017628479E3
2.919607312E2,1.017618179E3
2.929995852E2,1.017594910E3
2.940384962E2,1.017581863E3
2.950773802E2,1.017571564E3
2.961163132E2,1.017571564E3
2.971552102E2,1.017571564E3
2.981941272E2,1.017570572E3
2.992329762E2,1.017557983E3
3.002718572E2,1.017555237E3
3.013107042E2,1.017555237E3
3.023495482E2,1.017576447E3
3.033883772E2,1.017616501E3
3.044272752E2,1.017667007E3
3.054661842E2,1.017711029E3
3.065051372E2,1.017726440E3
3.075440812E2,1.017726440E3
3.085830222E2,1.017708817E3
3.096219382E2,1.017663345E3
3.106608372E2,1.017603455E3
3.116996922E2,1.017552872E3
3.127386052E2,1.017534790E3
3.137774982E2,1.017534790E3
3.148164212E2,1.017553787E3
3.158553202E2,1.017580032E3
3.168942452E2,1.017612076E3
3.179332032E2,1.017615051E3
3.189721412E2,1.017615051E3
3.200109962E2,1.017600937E3
3.210498062E2,1.017581711E3
3.220887032E2,1.017542191E3
3.231276112E2,1.017482758E3
3.241664162E2,1.017413406E3
3.252052562E2,1.017337494E3
3.262441432E2,1.017262344E3
3.272830582E2,1.017191467E3
3.283219942E2,1.017131500E3
3.293609682E2,1.017078934E3
3.303999412E2,1.017031555E3
3.314388802E2,1.016987762E3
3.324778682E2,1.016952972E3
3.335168232E2,1.016925812E3
3.345557882E2,1.016913986E3
3.355947422E2,1.016913986E3
3.366336802E2,1.016933289E3
3.376725932E2,1.016965179E3
3.387115522E2,1.017007294E3
3.397505232E2,1.017043686E3
3.407894532E2,1.017093658E3
3.418283582E2,1.017144318E3
3.428672892E2,1.017192764E3
3.439062862E2,1.017239914E3
3.449451862E2,1.017290955E3
3.459841022E2,1.017328644E3
3.470229972E2,1.017355042E3
3.480618962E2,1.017372971E3
3.491007792E2,1.017386703E3
3.501396452E2,1.017396240E3
3.511785282E2,1.017402725E3
3.522173742E2,1.017404938E3
3.532562572E2,1.017407074E3
3.542951542E2,1.017407074E3
3.553340752E2,1.017404480E3
3.563729362E2,1.017404480E3
3.574118232E2,1.017412262E3
3.584507202E2,1.017428131E3
3.594896232E2,1.017446365E3
3.605284512E2,1.017471085E3
3.615672682E2,1.017497635E3
3.626061272E2,1.017518616E3
3.636450242E2,1.017535324E3
3.646838612E2,1.017554169E3
3.657227452E2,1.017578583E3
3.667616092E2,1.017601547E3
3.678005382E2,1.017624741E3
3.688394872E2,1.017649231E3
3.698784622E2,1.017672729E3
3.709174562E2,1.017685089E3
3.719563732E2,1.017690353E3
3.729952232E2,1.017690353E3
3.740340802E2,1.017684021E3
3.750729382E2,1.017673340E3
3.761118572E2,1.017665863E3
3.771507332E2,1.017662354E3
3.781895702E2,1.017661057E3
3.792284362E2,1.017653961E3
3.802672972E2,1.017646866E3
3.813061262E2,1.017636795E3
3.823449912E2,1.017623825E3
3.833838692E2,1.017613983E3
3.844228182E2,1.017613983E3
3.854617712E2,1.017621994E3
3.865007472E2,1.017637024E3
3.875397262E2,1.017654572E3
3.885786472E2,1.017674866E3
3.896175612E2,1.017690887E3
3.906564902E2,1.017693176E3
3.916954512E2,1.017693176E3
3.927344062E2,1.017684021E3
3.937733512E2,1.017667694E3
3.948122912E2,1.017644119E3
3.958512032E2,1.017613831E3
3.968901002E2,1.017573700E3
3.979290612E2,1.017525482E3
3.989680042E2,1.017467651E3
4.000069092E2,1.017403336E3
4.010458452E2,1.017331314E3
4.020847772E2,1.017257233E3
4.031236762E2,1.017179184E3
4.041625982E2,1.017106323E3
4.052014942E2,1.017032318E3
4.062403922E2,1.016972046E3
4.072793382E2,1.016918716E3
4.083182612E2,1.016881866E3
4.093571812E2,1.016858368E3
4.103961222E2,1.016845779E3
4.114350962E2,1.016845779E3
4.124740952E2,1.016858749E3
4.135130532E2,1.016866302E3
4.145520212E2,1.016866302E3
4.155909172E2,1.016859818E3
4.166298292E2,1.016835251E3
4.176688002E2,1.016791611E3
4.187077052E2,1.016734085E3
4.197466282E2,1.016665192E3
4.207856102E2,1.016589050E3
4.218245322E2,1.016515121E3
4.228635082E2,1.016445923E3
4.239024932E2,1.016378632E3
4.249414792E2,1.016323318E3
4.259803672E2,1.016277847E3
4.270192922E2,1.016239243E3
4.280582222E2,1.016201324E3
4.290971252E2,1.016166611E3
4.301360492E2,1.016137848E3
4.311749702E2,1.016116638E3
4.322138462E2,1.016090240E3
4.332527172E2,1.016089783E3
4.342916342E2,1.016089783E3
4.353305652E2,1.016092300E3
4.363694492E2,1.016095428E3
4.374084072E2,1.016105499E3
4.384473302E2,1.016112976E3
4.394862572E2,1.016116028E3
4.405251632E2,1.016118622E3
4.415640862E2,1.016119995E3
4.426029522E2,1.016132736E3
4.436418512E2,1.016146622E3
4.446807632E2,1.016150970E3
4.457196592E2,1.016159439E3
4.467585892E2,1.016188889E3
4.477975462E2,1.016202850E3
4.488364832E2,1.016229706E3
4.498754582E2,1.016278229E3
4.509144132E2,1.016328049E3
4.519533462E2,1.016369171E3
4.529922452E2,1.016422882E3
4.540311402E2,1.016465073E3
4.550700852E2,1.016507492E3
4.561089382E2,1.016549454E3
4.571477602E2,1.016593857E3
4.581866702E2,1.016638184E3
4.592255522E2,1.016675644E3
4.602644242E2,1.016706085E3
4.613032832E2,1.016738892E3
4.623421522E2,1.016766891E3
4.633809652E2,1.016779938E3
4.644198372E2,1.016779938E3
4.654586882E2,1.016779633E3
4.664975272E2,1.016778030E3
4.675363912E2,1.016775970E3
4.685752732E2,1.016775970E3
4.696141902E2,1.016795578E3
4.706530812E2,1.016811066E3
4.716920192E2,1.016817398E3
4.727309502E2,1.016821899E3
4.737698912E2,1.016821899E3
4.748088142E2,1.016819839E3
4.758477122E2,1.016816635E3
4.768866312E2,1.016812363E3
4.779255322E2,1.016801453E3
4.789644792E2,1.016801453E3
4.800034232E2,1.016801987E3
4.810423912E2,1.016803513E3
4.820813652E2,1.016809006E3
4.831202942E2,1.016824417E3
4.841593142E2,1.016834183E3
4.851982732E2,1.016837387E3
4.862371662E2,1.016841507E3
4.872760692E2,1.016841507E3
4.883149022E2,1.016840897E3
4.893537442E2,1.016840897E3
4.903925982E2,1.016848907E3
4.914314262E2,1.016861343E3
4.924702492E2,1.016871414E3
4.935090092E2,1.016878662E3
4.945478322E2,1.016884842E3
4.955866292E2,1.016889496E3
4.966254092E2,1.016894379E3
4.976642372E2,1.016908188E3
4.987031462E2,1.016928864E3
4.997420542E2,1.016949539E3
5.007809182E2,1.016967621E3
5.018197612E2,1.016979065E3
5.028586242E2,1.016982956E3
5.038974232E2,1.016986084E3
5.049362772E2,1.016988831E3
5.059750852E2,1.016990204E3
5.070138882E2,1.016991348E3
5.080527062E2,1.017000275E3
5.090915982E2,1.017019806E3
5.101304372E2,1.017033768E3
5.111691922E2,1.017048492E3
5.122079862E2,1.017066116E3
5.132468232E2,1.017083969E3
5.142856592E2,1.017099533E3
5.153244692E2,1.017120972E3
5.163632702E2,1.017150574E3
5.174020512E2,1.017188492E3
5.184408322E2,1.017223206E3
5.194796492E2,1.017259750E3
5.205184492E2,1.017299042E3
5.215572472E2,1.017329330E3
5.225960072E2,1.017350693E3
5.236348052E2,1.017366409E3
5.246735862E2,1.017388763E3
5.257123762E2,1.017412949E3
5.267511232E2,1.017444077E3
5.277899512E2,1.017482758E3
5.288287982E2,1.017530441E3
5.298676902E2,1.017568893E3
5.309065742E2,1.017600479E3
5.319453912E2,1.017635651E3
5.329842162E2,1.017667847E3
5.340229432E2,1.017706909E3
5.350617222E2,1.017739868E3
5.361005742E2,1.017765121E3
5.371393472E2,1.017781372E3
5.381780722E2,1.017792358E3
5.392168782E2,1.017792816E3
5.402556842E2,1.017800674E3
5.412944492E2,1.017809143E3
5.423332422E2,1.017817078E3
5.433720252E2,1.017822113E3
5.444108622E2,1.017834778E3
5.454496462E2,1.017848358E3
5.464883802E2,1.017868652E3
5.475270812E2,1.017890930E3
5.485658212E2,1.017914886E3
5.496045852E2,1.017932358E3
5.506433472E2,1.017942963E3
5.516821342E2,1.017949142E3
5.527209542E2,1.017954330E3
5.537598212E2,1.017963104E3
5.547986222E2,1.017963104E3
5.558374542E2,1.017961578E3
5.568763412E2,1.017959061E3
5.579151852E2,1.017956848E3
5.589540232E2,1.017943649E3
5.599929082E2,1.017938461E3
5.610317732E2,1.017938461E3
5.620706432E2,1.017945862E3
5.631095012E2,1.017951431E3
5.641484292E2,1.017966232E3
5.651873622E2,1.017972260E3
5.662262882E2,1.017978668E3
5.672651872E2,1.017986603E3
5.683040622E2,1.017990723E3
5.693429472E2,1.017992783E3
5.703817942E2,1.018003311E3
5.714206552E2,1.018005753E3
5.724594982E2,1.018005753E3
5.734983542E2,1.018000259E3
5.745372552E2,1.017999802E3
5.755761382E2,1.017999802E3
5.766149672E2,1.017999802E3
5.776537172E2,1.018000793E3
5.786925102E2,1.018002319E3
5.797312872E2,1.018003387E3
5.807701082E2,1.018003387E3
5.818088862E2,1.017985840E3
5.828476062E2,1.017985840E3
5.838863362E2,1.017994995E3
5.849250882E2,1.017994995E3
5.859638552E2,1.017996063E3
5.870026042E2,1.018005600E3
5.880413612E2,1.018010254E3
5.890800782E2,1.018015900E3
5.901187992E2,1.018018036E3
5.911575412E2,1.018036652E3
5.921963502E2,1.018053894E3
5.932351172E2,1.018064957E3
5.942738832E2,1.018083878E3
5.953126612E2,1.018095703E3
5.963513842E2,1.018106918E3
5.973901552E2,1.018122253E3
5.984288352E2,1.018151093E3
5.994675762E2,1.018154678E3
6.005062642E2,1.018154678E3
6.015450152E2,1.018129501E3
6.025837842E2,1.018073807E3
6.036225812E2,1.018000793E3
6.046613932E2,1.017933960E3
6.057001862E2,1.017884750E3
6.067389412E2,1.017865372E3
6.077776682E2,1.017865372E3
6.088163942E2,1.017903061E3
6.098551112E2,1.017953033E3
6.108937732E2,1.018004303E3
6.119324852E2,1.018054962E3
6.129711752E2,1.018078461E3
6.140098462E2,1.018078461E3
6.150486662E2,1.018072281E3
6.160875382E2,1.018061829E3
6.171264572E2,1.018049622E3
6.181653172E2,1.018036575E3
6.192041592E2,1.018022537E3
6.202430162E2,1.018008194E3
6.212818992E2,1.017972794E3
6.223207682E2,1.017939758E3
6.233596692E2,1.017918625E3
6.243985162E2,1.017894287E3
6.254373912E2,1.017880554E3
6.264762102E2,1.017880554E3
6.275150772E2,1.017881165E3
6.285539662E2,1.017881165E3
6.295928942E2,1.017881165E3
6.306318162E2,1.017883072E3
6.316706952E2,1.017883987E3
6.327096212E2,1.017883987E3
6.337484962E2,1.017867737E3
6.347874242E2,1.017846375E3
6.358263122E2,1.017837296E3
6.368651752E2,1.017829742E3
6.379040782E2,1.017820969E3
6.389429802E2,1.017820969E3
6.399818612E2,1.017824707E3
6.410206582E2,1.017824707E3
6.420594662E2,1.017799225E3
6.430982712E2,1.017789154E3
6.441369962E2,1.017778702E3
6.451758062E2,1.017762527E3
6.462146032E2,1.017744064E3
6.472534292E2,1.017741013E3
6.482922742E2,1.017721252E3
6.493311462E2,1.017700500E3
6.503700112E2,1.017686157E3
6.514088592E2,1.017668762E3
6.524477082E2,1.017654419E3
6.534865112E2,1.017639847E3
6.545253192E2,1.017625580E3
6.555641812E2,1.017607117E3
6.566029582E2,1.017587357E3
6.576417752E2,1.017568207E3
6.586806232E2,1.017551270E3
6.597194032E2,1.017534256E3
6.607581932E2,1.017520065E3
6.617970402E2,1.017509384E3
6.628358892E2,1.017494812E3
6.638747042E2,1.017481842E3
6.649135452E2,1.017470016E3
6.659523962E2,1.017459106E3
6.669912702E2,1.017446213E3
6.680301662E2,1.017436600E3
6.690689952E2,1.017426224E3
6.701078442E2,1.017411880E3
6.711466782E2,1.017394485E3
6.721854912E2,1.017378616E3
6.732243392E2,1.017366180E3
6.742632092E2,1.017360001E3
6.753020012E2,1.017355499E3
6.763408202E2,1.017346573E3
6.773797042E2,1.017332840E3
6.784185992E2,1.017323456E3
6.794574752E2,1.017310638E3
6.804963642E2,1.017298737E3
6.815352102E2,1.017290192E3
6.825741122E2,1.017281036E3
6.836130082E2,1.017270050E3
6.846518882E2,1.017255020E3
6.856907932E2,1.017234955E3
6.867296992E2,1.017220612E3
6.877685812E2,1.017209930E3
6.888074532E2,1.017200546E3
6.898463242E2,1.017193069E3
6.908852122E2,1.017192612E3
6.919241082E2,1.017192612E3
6.929630502E2,1.017197266E3
6.940019852E2,1.017198105E3
6.950409252E2,1.017198181E3
6.960798702E2,1.017198105E3
6.971187592E2,1.017191010E3
6.981576422E2,1.017182770E3
6.991965352E2,1.017175064E3
7.002354122E2,1.017172546E3
7.012743002E2,1.017167587E3
7.023132482E2,1.017167587E3
7.033521652E2,1.017166595E3
7.043910962E2,1.017166901E3
7.054299952E2,1.017166138E3
7.064689262E2,1.017164001E3
7.075078032E2,1.017159653E3
7.085467092E2,1.017154388E3
7.095855862E2,1.017149124E3
7.106245722E2,1.017143784E3
7.116635182E2,1.017143478E3
7.127024952E2,1.017136078E3
7.137414392E2,1.017131424E3
7.147804042E2,1.017131195E3
7.158193522E2,1.017130051E3
7.168582792E2,1.017104111E3
7.178972492E2,1.017091217E3
7.189361702E2,1.017087936E3
7.199750992E2,1.017075577E3
7.210139712E2,1.017070999E3
7.220528962E2,1.017070999E3
7.230918442E2,1.017070999E3
7.241307992E2,1.017063293E3
7.251697122E2,1.017053604E3
7.262086072E2,1.017050171E3
7.272475092E2,1.017045975E3
7.282864072E2,1.017045975E3
7.293253532E2,1.017051773E3
7.303642742E2,1.017065506E3
7.314032192E2,1.017075958E3
7.324421532E2,1.017087173E3
7.334810542E2,1.017098694E3
7.345198932E2,1.017110901E3
7.355587232E2,1.017117310E3
7.365975852E2,1.017118607E3
7.376364282E2,1.017122803E3
7.386753012E2,1.017127991E3
