"Time (s)","X (hPa)"
-5.186534583E-1,1.018160172E3
5.197155417E-1,1.018172455E3
1.558146542E0,1.018184662E3
2.596601542E0,1.018196564E3
3.634971542E0,1.018201904E3
4.673308542E0,1.018204575E3
5.184927542E0,1.018205643E3
6.223325542E0,1.018211517E3
7.261726542E0,1.018211517E3
8.300107542E0,1.018206329E3
9.338469542E0,1.018201752E3
1.037683554E1,1.018196640E3
1.141520454E1,1.018186951E3
1.245359454E1,1.018184891E3
1.349198354E1,1.018184891E3
1.453031154E1,1.018185043E3
1.556865354E1,1.018185043E3
1.660695454E1,1.018184738E3
1.764527354E1,1.018184738E3
1.868368854E1,1.018184814E3
1.972207454E1,1.018194351E3
2.076042854E1,1.018203430E3
2.179877054E1,1.018213348E3
2.283714354E1,1.018225021E3
2.387549854E1,1.018241882E3
2.491384054E1,1.018258591E3
2.590652654E1,1.018273849E3
2.674042654E1,1.018293381E3
2.757432454E1,1.018312073E3
2.840818454E1,1.018325424E3
2.924204054E1,1.018330841E3
3.007584654E1,1.018330841E3
3.090967554E1,1.018328629E3
3.174351054E1,1.018319931E3
3.257736954E1,1.018303909E3
3.341124354E1,1.018288651E3
3.424508954E1,1.018272705E3
3.507897454E1,1.018260193E3
3.591278754E1,1.018248215E3
3.674658554E1,1.018246231E3
3.758039654E1,1.018242264E3
3.841418354E1,1.018241425E3
3.924799854E1,1.018241425E3
4.008178554E1,1.018243332E3
4.091556454E1,1.018244247E3
4.174938654E1,1.018244247E3
4.258323754E1,1.018240356E3
4.341707554E1,1.018233185E3
4.425091754E1,1.018225784E3
4.508474754E1,1.018218918E3
4.591857154E1,1.018215103E3
4.675239554E1,1.018215103E3
4.758625154E1,1.018215561E3
4.842009854E1,1.018215561E3
4.925393554E1,1.018211899E3
5.008782454E1,1.018206711E3
5.092172054E1,1.018203049E3
5.175562054E1,1.018202133E3
5.258950454E1,1.018202133E3
5.342336454E1,1.018204498E3
5.425716954E1,1.018208542E3
5.509102154E1,1.018208542E3
5.592488554E1,1.018206177E3
5.675873954E1,1.018202591E3
5.759258354E1,1.018202057E3
5.842647754E1,1.018199615E3
5.926036254E1,1.018199615E3
6.009422754E1,1.018201447E3
6.092808254E1,1.018203125E3
6.176196054E1,1.018203430E3
6.259581754E1,1.018206100E3
6.342966354E1,1.018206100E3
6.426354254E1,1.018204117E3
6.509738054E1,1.018204117E3
6.593123554E1,1.018206787E3
6.676508854E1,1.018207016E3
6.759895754E1,1.018209076E3
6.843281954E1,1.018213654E3
6.926670254E1,1.018218079E3
7.010057854E1,1.018218994E3
7.093444854E1,1.018218994E3
7.176830354E1,1.018217545E3
7.260215454E1,1.018215790E3
7.343603554E1,1.018214188E3
7.426990154E1,1.018211823E3
7.510376254E1,1.018208389E3
7.593764754E1,1.018202515E3
7.677150554E1,1.018190079E3
7.760541354E1,1.018170242E3
7.843932354E1,1.018146210E3
7.927323354E1,1.018115158E3
8.010714354E1,1.018082657E3
8.094102954E1,1.018047638E3
8.177490154E1,1.018011246E3
8.260877754E1,1.017968597E3
8.344268754E1,1.017931366E3
8.427658954E1,1.017894745E3
8.511048354E1,1.017863846E3
8.594435054E1,1.017841492E3
8.677820454E1,1.017830048E3
8.761207554E1,1.017818756E3
8.844598754E1,1.017813721E3
8.936670754E1,1.017812805E3
9.040510554E1,1.017812195E3
9.144350654E1,1.017812195E3
9.248194854E1,1.017815247E3
9.352038254E1,1.017817078E3
9.455884454E1,1.017817688E3
9.559736154E1,1.017817841E3
9.663588354E1,1.017818298E3
9.760490154E1,1.017819824E3
9.843880054E1,1.017821884E3
9.927271354E1,1.017827911E3
1.001066125E2,1.017827911E3
1.009405095E2,1.017825623E3
1.017744255E2,1.017820053E3
1.026083135E2,1.017815170E3
1.034422015E2,1.017806473E3
1.042761035E2,1.017799835E3
1.051099925E2,1.017799835E3
1.059438925E2,1.017799835E3
1.067777735E2,1.017799683E3
1.076116635E2,1.017799225E3
1.084455505E2,1.017798386E3
1.092794095E2,1.017797699E3
1.101132495E2,1.017797699E3
1.109470935E2,1.017805557E3
1.117809215E2,1.017814026E3
1.126147595E2,1.017822342E3
1.134485605E2,1.017830963E3
1.142823505E2,1.017840652E3
1.151161835E2,1.017843094E3
1.159500305E2,1.017843552E3
1.167838735E2,1.017844238E3
1.176177055E2,1.017849655E3
1.184514935E2,1.017863922E3
1.192852935E2,1.017881546E3
1.201191285E2,1.017901077E3
1.209529775E2,1.017920074E3
1.217867895E2,1.017934265E3
1.226205895E2,1.017936935E3
1.234543795E2,1.017936935E3
1.242882185E2,1.017932739E3
1.251220795E2,1.017927933E3
1.259559495E2,1.017922592E3
1.267898145E2,1.017917862E3
1.276236885E2,1.017915802E3
1.284575755E2,1.017915802E3
1.292914225E2,1.017920914E3
1.301252895E2,1.017932739E3
1.309591775E2,1.017947998E3
1.317930485E2,1.017968140E3
1.326269005E2,1.017994537E3
1.334606885E2,1.018021469E3
1.342945285E2,1.018048553E3
1.351283565E2,1.018072433E3
1.359621925E2,1.018088989E3
1.367960305E2,1.018096848E3
1.376298735E2,1.018101425E3
1.384637315E2,1.018101425E3
1.392975845E2,1.018101425E3
1.401981465E2,1.018102722E3
1.412364045E2,1.018104782E3
1.422746255E2,1.018105545E3
1.433064415E2,1.018105545E3
1.441402885E2,1.018104324E3
1.449741515E2,1.018100510E3
1.458080095E2,1.018094635E3
1.466418715E2,1.018089218E3
1.474757135E2,1.018085251E3
1.483095755E2,1.018082275E3
1.491434205E2,1.018082275E3
1.499772755E2,1.018083725E3
1.508111325E2,1.018085403E3
1.516449535E2,1.018086243E3
1.524787705E2,1.018087387E3
1.533125995E2,1.018087387E3
1.541464495E2,1.018087387E3
1.549803295E2,1.018088074E3
1.558141995E2,1.018089371E3
1.566480715E2,1.018090439E3
1.574819175E2,1.018091278E3
1.583157675E2,1.018092346E3
1.591496195E2,1.018092728E3
1.599834655E2,1.018093948E3
1.608172835E2,1.018095779E3
1.616510875E2,1.018096924E3
1.624849175E2,1.018098907E3
1.633187605E2,1.018101959E3
1.641526155E2,1.018103027E3
1.649864585E2,1.018103943E3
1.658203335E2,1.018105164E3
1.666542025E2,1.018105164E3
1.674880595E2,1.018106003E3
1.683218905E2,1.018106079E3
1.691557135E2,1.018109589E3
1.699895245E2,1.018112564E3
1.708233365E2,1.018112564E3
1.716571815E2,1.018103714E3
1.724910635E2,1.018097458E3
1.733249275E2,1.018087997E3
1.741587945E2,1.018077469E3
1.749926525E2,1.018077469E3
1.758264805E2,1.018077621E3
1.766603135E2,1.018077698E3
1.774941105E2,1.018077698E3
1.783278905E2,1.018077469E3
1.791617015E2,1.018076477E3
1.799955105E2,1.018076477E3
1.808293095E2,1.018077087E3
1.816631535E2,1.018088303E3
1.824970215E2,1.018096237E3
1.833309095E2,1.018104553E3
1.841647795E2,1.018112946E3
1.849986345E2,1.018123093E3
1.858324865E2,1.018128967E3
1.866663615E2,1.018144379E3
1.875002285E2,1.018161545E3
1.883340795E2,1.018180161E3
1.891679485E2,1.018196106E3
1.900018245E2,1.018205566E3
1.908356785E2,1.018207932E3
1.916695345E2,1.018207932E3
1.925033915E2,1.018206558E3
1.933372515E2,1.018200912E3
1.941711025E2,1.018195419E3
1.950049225E2,1.018188934E3
1.958387765E2,1.018179932E3
1.966726185E2,1.018170776E3
1.975064465E2,1.018162918E3
1.983402825E2,1.018152618E3
1.991741385E2,1.018144302E3
2.000079935E2,1.018134766E3
2.008418485E2,1.018125916E3
2.016757045E2,1.018115997E3
2.025095505E2,1.018109589E3
2.033433865E2,1.018097839E3
2.041772375E2,1.018093796E3
2.050110955E2,1.018093796E3
2.058449435E2,1.018104095E3
2.066787905E2,1.018123932E3
2.075126545E2,1.018160477E3
2.083464945E2,1.018204575E3
2.091803325E2,1.018252716E3
2.100141975E2,1.018304138E3
2.108480415E2,1.018361588E3
2.116819355E2,1.018415680E3
2.125158155E2,1.018475876E3
2.133496815E2,1.018535233E3
2.141835445E2,1.018590240E3
2.150174125E2,1.018641815E3
2.158512755E2,1.018687439E3
2.166851025E2,1.018720779E3
2.175189275E2,1.018742294E3
2.183527965E2,1.018759460E3
2.191866695E2,1.018771591E3
2.200205295E2,1.018778610E3
2.208544105E2,1.018783569E3
2.216882675E2,1.018787155E3
2.225221575E2,1.018791428E3
2.233560385E2,1.018794022E3
2.241899225E2,1.018799057E3
2.250238105E2,1.018801575E3
2.258576975E2,1.018806458E3
2.266915675E2,1.018806458E3
2.275254005E2,1.018804474E3
2.283592375E2,1.018803635E3
2.291930815E2,1.018803635E3
2.300269635E2,1.018797836E3
2.308608195E2,1.018791885E3
2.316946585E2,1.018789062E3
2.325285185E2,1.018780289E3
2.333623585E2,1.018774033E3
2.341961955E2,1.018767014E3
2.350300275E2,1.018765564E3
2.358638705E2,1.018765564E3
2.366977065E2,1.018764572E3
2.375315565E2,1.018765869E3
2.383654125E2,1.018766785E3
2.391992705E2,1.018767853E3
2.400331565E2,1.018769608E3
2.408670145E2,1.018769608E3
2.417008775E2,1.018776703E3
2.425347315E2,1.018786163E3
2.433685765E2,1.018795166E3
2.442024135E2,1.018804092E3
2.450362665E2,1.018818512E3
2.458701235E2,1.018836212E3
2.467039775E2,1.018863678E3
2.475378245E2,1.018871460E3
2.483716955E2,1.018884888E3
2.492055735E2,1.018884888E3
2.500394295E2,1.018886566E3
2.508732955E2,1.018886566E3
2.517071705E2,1.018886566E3
2.525410145E2,1.018890076E3
2.533748465E2,1.018890076E3
2.542086765E2,1.018867798E3
2.550425365E2,1.018846436E3
2.558763825E2,1.018822632E3
2.567102695E2,1.018789444E3
2.575441655E2,1.018753128E3
2.583780475E2,1.018710556E3
2.592119065E2,1.018659973E3
2.600457585E2,1.018604202E3
2.608796665E2,1.018548584E3
2.617135735E2,1.018486023E3
2.625474925E2,1.018423767E3
2.633813875E2,1.018364792E3
2.642152295E2,1.018310928E3
2.650490915E2,1.018259811E3
2.658829755E2,1.018218918E3
2.667168485E2,1.018191833E3
2.675506925E2,1.018169479E3
2.683845325E2,1.018159943E3
2.692184025E2,1.018155670E3
2.700522685E2,1.018154678E3
2.708861485E2,1.018154678E3
2.717200495E2,1.018157272E3
2.725539505E2,1.018166580E3
2.733878345E2,1.018184967E3
2.742217115E2,1.018215637E3
2.750555595E2,1.018250504E3
2.758893965E2,1.018299332E3
2.767232765E2,1.018350525E3
2.775571405E2,1.018405838E3
2.783910125E2,1.018459625E3
2.792248725E2,1.018517456E3
2.800587095E2,1.018570786E3
2.808924985E2,1.018620453E3
2.817263025E2,1.018663788E3
2.825601335E2,1.018704376E3
2.833939635E2,1.018733749E3
2.842277955E2,1.018754654E3
2.850616085E2,1.018768311E3
2.858954285E2,1.018777008E3
2.867292475E2,1.018780060E3
2.875630725E2,1.018780289E3
2.883968575E2,1.018781967E3
2.892306655E2,1.018782959E3
2.900645105E2,1.018783646E3
2.908983505E2,1.018785553E3
2.917322055E2,1.018786697E3
2.925660535E2,1.018786697E3
2.933998955E2,1.018786697E3
2.942337345E2,1.018791428E3
2.950675675E2,1.018795166E3
2.959013835E2,1.018795166E3
2.967352145E2,1.018791962E3
2.975690395E2,1.018787308E3
2.984028845E2,1.018776855E3
2.992367685E2,1.018768616E3
3.000706495E2,1.018760071E3
3.009044855E2,1.018759460E3
3.017382915E2,1.018759308E3
3.025720885E2,1.018759308E3
3.034058885E2,1.018759308E3
3.042397195E2,1.018759460E3
3.050735475E2,1.018761292E3
3.059073365E2,1.018761673E3
3.067411325E2,1.018764954E3
3.075749285E2,1.018777390E3
3.084087955E2,1.018787689E3
3.092426965E2,1.018797302E3
3.100765915E2,1.018806381E3
3.109104885E2,1.018812332E3
3.117443775E2,1.018814545E3
3.125782255E2,1.018816376E3
3.134120975E2,1.018829956E3
3.142459765E2,1.018851776E3
3.150798365E2,1.018872528E3
3.159136825E2,1.018889389E3
3.167475725E2,1.018903351E3
3.175814355E2,1.018903351E3
3.184153125E2,1.018901901E3
3.192491825E2,1.018894730E3
3.200830565E2,1.018886490E3
3.209169175E2,1.018872910E3
3.217507895E2,1.018855057E3
3.225846775E2,1.018833847E3
3.234185695E2,1.018803635E3
3.242524445E2,1.018767776E3
3.250863095E2,1.018728638E3
3.259201835E2,1.018682175E3
3.267540405E2,1.018631592E3
3.275879005E2,1.018577499E3
3.284217825E2,1.018520889E3
3.292556475E2,1.018462830E3
3.300895055E2,1.018407135E3
3.309233915E2,1.018353882E3
3.317572805E2,1.018305359E3
3.325911885E2,1.018268967E3
3.334250875E2,1.018237534E3
3.342589945E2,1.018220520E3
3.350928615E2,1.018207932E3
3.359267465E2,1.018201141E3
3.367606475E2,1.018197174E3
3.375945225E2,1.018195877E3
3.384283835E2,1.018193665E3
3.392622535E2,1.018184967E3
3.400960875E2,1.018179779E3
3.409299405E2,1.018174133E3
3.417637995E2,1.018166580E3
3.425976475E2,1.018155975E3
3.434314725E2,1.018154068E3
3.442653295E2,1.018149567E3
3.450992045E2,1.018145523E3
3.459330935E2,1.018142319E3
3.467669675E2,1.018136826E3
3.476008135E2,1.018127060E3
3.484347045E2,1.018110275E3
3.492686335E2,1.018083115E3
3.501025355E2,1.018048019E3
3.509363955E2,1.018008499E3
3.517702845E2,1.017964859E3
3.526041805E2,1.017917938E3
3.534381175E2,1.017873459E3
3.542720545E2,1.017831573E3
3.551059765E2,1.017789459E3
3.559399075E2,1.017749100E3
3.567738605E2,1.017720795E3
3.576077825E2,1.017702789E3
3.584416775E2,1.017689056E3
3.592755875E2,1.017683487E3
3.601094995E2,1.017682800E3
3.609434075E2,1.017682800E3
3.617773065E2,1.017677155E3
3.626111885E2,1.017675095E3
3.634450755E2,1.017674484E3
3.642789295E2,1.017673111E3
3.651127965E2,1.017673111E3
3.659466825E2,1.017674789E3
3.667805925E2,1.017677841E3
3.676144815E2,1.017681427E3
3.684483715E2,1.017686157E3
3.692822755E2,1.017690506E3
3.701161735E2,1.017692947E3
3.709500595E2,1.017693176E3
3.717839545E2,1.017693863E3
3.726178695E2,1.017694855E3
3.734518105E2,1.017697830E3
3.742857185E2,1.017698593E3
3.751195875E2,1.017698593E3
3.759534435E2,1.017694550E3
3.767873215E2,1.017688522E3
3.776212295E2,1.017679520E3
3.784551505E2,1.017669754E3
3.792890325E2,1.017667007E3
3.801229455E2,1.017665634E3
3.809568585E2,1.017665176E3
3.817907665E2,1.017665176E3
3.826246665E2,1.017665176E3
3.834585855E2,1.017665634E3
3.842924525E2,1.017665939E3
3.851263145E2,1.017667007E3
3.859601575E2,1.017668304E3
3.867940095E2,1.017672958E3
3.876278735E2,1.017685013E3
3.884617725E2,1.017694473E3
3.892956735E2,1.017702866E3
3.901295195E2,1.017713394E3
3.909633575E2,1.017727432E3
3.917971725E2,1.017739334E3
3.926310365E2,1.017758636E3
3.934649395E2,1.017779388E3
3.942988345E2,1.017797928E3
3.951327085E2,1.017810059E3
3.959665645E2,1.017810059E3
3.968004015E2,1.017804718E3
3.976342695E2,1.017797699E3
3.984681605E2,1.017785645E3
3.993020185E2,1.017769852E3
4.001359265E2,1.017758331E3
4.009698245E2,1.017748566E3
4.018037295E2,1.017738953E3
4.026376615E2,1.017738953E3
4.034715675E2,1.017740860E3
4.043054535E2,1.017753754E3
4.051393725E2,1.017765198E3
4.059732845E2,1.017775269E3
4.068071855E2,1.017788696E3
4.076410845E2,1.017796936E3
4.084749925E2,1.017801056E3
4.093088685E2,1.017809372E3
4.101427615E2,1.017819977E3
4.109766795E2,1.017829132E3
4.118105855E2,1.017837372E3
4.126444555E2,1.017842484E3
4.134783485E2,1.017846069E3
4.143122525E2,1.017846069E3
4.151461555E2,1.017845840E3
4.159800465E2,1.017844086E3
4.168139105E2,1.017842789E3
4.176477685E2,1.017840500E3
4.184816185E2,1.017839355E3
4.193154785E2,1.017837296E3
4.201493445E2,1.017837296E3
4.209831855E2,1.017837677E3
4.218170115E2,1.017839890E3
4.226508445E2,1.017840271E3
4.234847155E2,1.017840271E3
4.243185635E2,1.017842712E3
4.251524395E2,1.017843552E3
4.259863045E2,1.017843628E3
4.268202065E2,1.017844315E3
4.276540895E2,1.017844315E3
4.284879735E2,1.017844162E3
4.293218835E2,1.017842102E3
4.301558145E2,1.017840805E3
4.309896715E2,1.017839355E3
4.318235455E2,1.017836304E3
4.326573995E2,1.017835007E3
4.334912465E2,1.017833862E3
4.343251315E2,1.017833328E3
4.351589875E2,1.017833328E3
4.359928375E2,1.017833939E3
4.368266875E2,1.017835236E3
4.376605325E2,1.017836456E3
4.384943725E2,1.017836456E3
4.393282165E2,1.017836456E3
4.401620435E2,1.017838516E3
4.409959205E2,1.017842789E3
4.418297925E2,1.017842789E3
4.426636365E2,1.017838593E3
4.434974605E2,1.017833405E3
4.443313165E2,1.017825699E3
4.451651965E2,1.017813644E3
4.459990655E2,1.017807541E3
4.468329085E2,1.017807541E3
4.476668195E2,1.017808228E3
4.485007005E2,1.017808304E3
4.493345765E2,1.017809372E3
4.501684235E2,1.017809372E3
4.510022645E2,1.017807922E3
4.518361445E2,1.017806549E3
4.526700135E2,1.017806549E3
4.535038905E2,1.017806778E3
4.543377665E2,1.017808228E3
4.551716695E2,1.017817459E3
4.560056005E2,1.017828293E3
4.568395255E2,1.017837982E3
4.576734175E2,1.017846756E3
4.585072735E2,1.017856903E3
4.593411055E2,1.017866364E3
4.601749505E2,1.017872467E3
4.610088045E2,1.017883911E3
4.618426725E2,1.017899475E3
4.626765245E2,1.017914810E3
4.635103655E2,1.017926178E3
4.643442115E2,1.017933502E3
4.651780455E2,1.017937317E3
4.660118535E2,1.017937317E3
4.668457115E2,1.017933121E3
4.676795945E2,1.017926636E3
4.685134785E2,1.017921143E3
4.693473795E2,1.017912903E3
4.701812815E2,1.017899780E3
4.710151415E2,1.017890854E3
4.718489715E2,1.017880783E3
4.726828305E2,1.017867966E3
4.735166965E2,1.017857513E3
4.743505695E2,1.017851105E3
4.751844605E2,1.017844467E3
4.760183285E2,1.017840576E3
4.768521855E2,1.017839737E3
4.776860615E2,1.017839355E3
4.785199555E2,1.017839355E3
4.793538565E2,1.017839661E3
4.801877425E2,1.017839813E3
4.810216255E2,1.017839813E3
4.818555115E2,1.017839890E3
4.826893755E2,1.017840500E3
4.835232855E2,1.017840729E3
4.843572095E2,1.017841415E3
4.851911345E2,1.017841797E3
4.860250015E2,1.017845078E3
4.868588525E2,1.017853317E3
4.876927235E2,1.017861862E3
4.885266305E2,1.017869949E3
4.893605445E2,1.017877121E3
4.901944435E2,1.017877121E3
4.910283585E2,1.017874756E3
4.918622735E2,1.017868881E3
4.926962045E2,1.017861099E3
4.935300925E2,1.017860336E3
4.943639735E2,1.017856369E3
4.951978525E2,1.017854385E3
4.960317485E2,1.017854385E3
4.968655865E2,1.017854385E3
4.976994575E2,1.017849350E3
4.985333325E2,1.017843170E3
4.993671945E2,1.017834854E3
5.002010335E2,1.017813263E3
5.010348915E2,1.017785416E3
5.018687575E2,1.017752914E3
5.027026275E2,1.017710419E3
5.035364965E2,1.017667542E3
5.043703145E2,1.017623215E3
5.052041885E2,1.017584610E3
5.060380625E2,1.017550964E3
5.068719625E2,1.017529144E3
5.077058615E2,1.017514496E3
5.085397695E2,1.017513123E3
5.093736725E2,1.017513123E3
5.102076035E2,1.017513885E3
5.110415245E2,1.017531509E3
5.118754035E2,1.017556534E3
5.127092725E2,1.017580338E3
5.135431205E2,1.017619171E3
5.143769845E2,1.017659836E3
5.152108535E2,1.017693558E3
5.160446895E2,1.017725830E3
5.168910115E2,1.017746811E3
5.179292305E2,1.017766876E3
5.189674395E2,1.017776489E3
5.200056155E2,1.017785339E3
5.210438345E2,1.017788162E3
5.220820875E2,1.017796173E3
5.229382875E2,1.017796326E3
5.237721205E2,1.017801743E3
5.246059585E2,1.017802277E3
5.254397385E2,1.017802963E3
5.262735085E2,1.017804413E3
5.271073175E2,1.017804794E3
5.279411165E2,1.017807312E3
5.287749335E2,1.017808533E3
5.296087495E2,1.017810135E3
5.304425725E2,1.017812958E3
5.312764055E2,1.017817917E3
5.321102595E2,1.017828064E3
5.329440795E2,1.017841339E3
5.337778695E2,1.017855148E3
5.346116515E2,1.017867126E3
5.354454675E2,1.017872238E3
5.362793105E2,1.017872238E3
5.371131695E2,1.017864609E3
5.379470245E2,1.017856293E3
5.387809055E2,1.017845917E3
5.396147965E2,1.017836227E3
5.404486635E2,1.017830353E3
5.412825035E2,1.017826614E3
5.421163565E2,1.017821579E3
5.429502115E2,1.017820206E3
5.437840765E2,1.017819366E3
5.446179145E2,1.017819366E3
5.454517225E2,1.017817764E3