"Time (s)","Magnetic field x (µT)","Magnetic field y (µT)","Magnetic field z (µT)"
2.893684060E-1,7.556250000E1,-7.252500153E1,-1.083562546E2
7.893684060E-1,7.790625000E1,-5.926875305E1,-1.222125015E2
1.289368406E0,6.283125305E1,-4.612500000E1,-1.413187561E2
1.789368406E0,1.072500038E1,-6.881250381E0,-1.414312592E2
2.289368406E0,-3.551250076E1,2.098125076E1,-1.272375031E2
2.789368406E0,-6.577500153E1,4.100625229E1,-1.200937576E2
3.289368406E0,-8.287500000E1,6.060000229E1,-1.177125015E2
3.789368406E0,-1.007250061E2,7.531875610E1,-1.130437546E2
4.289368175E0,-1.392187500E2,1.053000031E2,-1.131562576E2
4.789368175E0,-1.803562622E2,1.374375000E2,-1.120500031E2
5.289368175E0,-2.208750153E2,1.679062500E2,-1.035562515E2
5.789368175E0,-2.417062531E2,1.817437592E2,-9.770625305E1
6.289368175E0,-2.518875122E2,1.905375061E2,-1.005562515E2
6.789368175E0,-2.615437622E2,1.973437653E2,-1.003875046E2
7.289368175E0,-2.787187500E2,2.013562622E2,-9.568125153E1
7.789368175E0,-2.888250122E2,2.060062561E2,-8.574375153E1
8.289368175E0,-2.907375183E2,2.158125153E2,-6.316875076E1
8.789368175E0,-2.767500000E2,2.292375031E2,-3.706875229E1
9.289368175E0,-2.498812561E2,2.357250061E2,-2.107500076E1
9.789368175E0,-2.149500122E2,2.263687592E2,-8.681250572E0
1.028936818E1,-1.798312531E2,2.128687592E2,4.968750000E0
1.078936818E1,-1.372687531E2,1.803000031E2,1.237500095E1
1.128936818E1,-8.604375458E1,1.429312592E2,1.852500153E1
1.178936818E1,-3.796875000E1,1.045312576E2,1.606875038E1
1.228936818E1,3.581250191E0,6.442500305E1,5.081250191E0
1.278936818E1,2.392500114E1,2.015625000E1,-5.568750381E0
1.328936818E1,3.018750191E1,-9.975000381E0,-6.225000381E0
1.378936818E1,2.891250038E1,-2.285625076E1,-5.025000095E0
1.428936818E1,2.566875076E1,-2.533125114E1,-3.956250191E0
1.478936818E1,1.470000076E1,-6.806250095E0,1.893750072E0
1.528936818E1,-9.000000358E-1,1.458750057E1,6.787500381E0
1.578936818E1,-1.430625057E1,3.196875191E1,1.089375019E1
1.628936818E1,-2.578125191E1,4.479375076E1,1.413750076E1
1.678936818E1,-2.934375191E1,5.261250305E1,1.554375076E1
1.728936818E1,-2.716875076E1,5.208750153E1,1.511250019E1
1.778936818E1,-2.328750038E1,5.053125381E1,1.441875076E1
1.828936818E1,-1.786875153E1,4.488750076E1,1.218750095E1
1.878936818E1,-1.335000038E1,3.845625305E1,1.018125057E1
1.928936818E1,-1.050000000E1,3.264375305E1,8.325000763E0
1.978936818E1,-8.006250381E0,3.067500114E1,7.837500095E0
2.028936818E1,-7.200000286E0,3.084375191E1,7.181250095E0
2.078936818E1,-7.968750477E0,3.193125153E1,6.918750286E0
2.128936818E1,-8.587500572E0,3.264375305E1,6.693750381E0
2.178936818E1,-8.493750572E0,3.305625153E1,6.600000381E0
2.228936818E1,-9.337500572E0,3.352500153E1,6.637500286E0
2.278936818E1,-1.025625038E1,3.361875153E1,6.712500095E0
2.328936818E1,-1.001250076E1,3.367500305E1,6.843750477E0
2.378936818E1,-1.076250076E1,3.399375153E1,6.693750381E0
2.428936818E1,-1.213125038E1,3.448125076E1,7.050000191E0
2.478936818E1,-1.271250057E1,3.438750076E1,7.406250477E0
2.528936818E1,-1.327500057E1,3.438750076E1,7.631250381E0
2.578936818E1,-1.325625038E1,3.399375153E1,7.425000191E0
2.628936818E1,-1.267500019E1,3.346875000E1,7.425000191E0
2.678936818E1,-1.237500095E1,3.360000229E1,7.537500381E0
2.728936818E1,-1.295625019E1,3.358125305E1,7.387500286E0
2.778936818E1,-1.333125019E1,3.382500076E1,7.537500381E0
2.828936818E1,-1.423125076E1,3.416250229E1,7.612500191E0
2.878936818E1,-1.488750076E1,3.431250000E1,7.706250191E0
2.928936818E1,-1.471875095E1,3.423750305E1,7.950000286E0
2.978936818E1,-1.552500057E1,3.476250076E1,8.343750000E0
3.028936818E1,-1.672500038E1,3.498750305E1,8.287500381E0
3.078936818E1,-1.681875038E1,3.451875305E1,8.175000191E0
3.128936818E1,-1.586250019E1,3.382500076E1,8.231250763E0
3.178936818E1,-1.501875019E1,3.328125000E1,8.062500000E0
3.228936818E1,-1.402500057E1,3.281250000E1,8.025000572E0
3.278936818E1,-1.301250076E1,3.219375229E1,7.743750095E0
3.328936818E1,-1.235625076E1,3.166875076E1,7.668750286E0
3.378936818E1,-1.179375076E1,3.095625114E1,7.593750477E0
3.428936818E1,-1.145625019E1,3.063750076E1,7.218750477E0
3.478936818E1,-1.149375057E1,3.050625038E1,6.918750286E0
3.528936818E1,-1.162500000E1,3.041250038E1,6.375000477E0
3.578936818E1,-1.164375019E1,3.007500076E1,5.587500095E0
3.628936818E1,-1.203750038E1,2.996250153E1,5.737500191E0
3.678936818E1,-1.303125095E1,3.041250038E1,6.300000191E0
3.728936818E1,-1.425000095E1,3.106875038E1,6.056250095E0
3.778936818E1,-1.488750076E1,3.159375191E1,5.250000000E0
3.828936818E1,-1.533750057E1,3.221250153E1,5.268750191E0
3.878936818E1,-1.588125038E1,3.258750153E1,5.025000095E0
3.928936818E1,-1.599375057E1,3.251250076E1,5.025000095E0
3.978936818E1,-1.590000057E1,3.266250229E1,5.718750000E0
4.028936818E1,-1.546875095E1,3.266250229E1,5.662500381E0
4.078936818E1,-1.486875057E1,3.238125229E1,5.287500381E0
4.128936818E1,-1.417500019E1,3.183750153E1,5.231250286E0
4.178936818E1,-1.404375076E1,3.153750038E1,5.887500286E0
4.228936818E1,-1.387500095E1,3.144375038E1,6.412500381E0
4.278936818E1,-1.400625038E1,3.168750191E1,6.993750095E0
4.328936818E1,-1.460625076E1,3.226875305E1,7.518750191E0
4.378936818E1,-1.575000095E1,3.294375229E1,7.762500286E0
4.428936818E1,-1.698750114E1,3.358125305E1,7.687500477E0
4.478936818E1,-1.809375000E1,3.401250076E1,7.781250477E0
4.528936818E1,-1.876875114E1,3.408750153E1,6.337500095E0
4.578936818E1,-1.942500114E1,3.410625076E1,4.631250381E0
4.628936818E1,-2.038125038E1,3.421875000E1,3.225000143E0
4.678936818E1,-2.124375153E1,3.446250153E1,2.437500000E0
4.728936818E1,-2.216250038E1,3.466875076E1,1.762500048E0
4.778936818E1,-2.285625076E1,3.476250076E1,1.575000048E0
4.828936818E1,-2.334375000E1,3.453750229E1,1.200000048E0
4.878936818E1,-2.343750000E1,3.438750076E1,7.312500477E-1
4.928936818E1,-2.398125076E1,3.577500153E1,1.631250024E0
4.978936818E1,-2.456250191E1,3.656250000E1,2.606250048E0
5.028936818E1,-2.486250114E1,3.652500153E1,3.731250048E0
5.078936818E1,-2.424375153E1,3.618750000E1,4.518750191E0
5.128936818E1,-2.310000038E1,3.598125076E1,5.212500095E0
5.178936818E1,-2.176875114E1,3.545625305E1,5.306250095E0
5.228936818E1,-2.062500000E1,3.515625000E1,5.625000000E0
5.278936818E1,-1.965000153E1,3.478125000E1,5.868750095E0
5.328936818E1,-1.845000076E1,3.307500076E1,6.618750095E0
5.378936818E1,-1.719375038E1,3.241875076E1,7.556250095E0
5.428936818E1,-1.653750038E1,3.234375000E1,7.781250477E0
5.478936818E1,-1.680000114E1,3.238125229E1,7.875000477E0
5.528936818E1,-1.785000038E1,3.217500305E1,8.025000572E0
5.578936818E1,-1.923750114E1,3.256875229E1,7.968750477E0
5.628936818E1,-2.030625153E1,3.286875153E1,7.818750381E0
5.678936818E1,-2.130000114E1,3.322500229E1,7.668750286E0
5.728936818E1,-2.220000076E1,3.375000000E1,7.443750381E0
5.778936818E1,-2.265000153E1,3.343125153E1,6.937500477E0
5.828936818E1,-2.259375000E1,3.273750305E1,6.562500477E0
5.878936818E1,-2.135625076E1,3.268125153E1,6.356250286E0
5.928936818E1,-1.906875038E1,3.375000000E1,5.456250191E0
5.978936818E1,-1.790625000E1,3.318750000E1,4.668750286E0
6.028936818E1,-1.723125076E1,3.211875153E1,3.675000191E0
6.078936818E1,-1.665000153E1,3.131250191E1,2.831250191E0
6.128936818E1,-1.601250076E1,3.056250191E1,2.268750191E0
6.178936818E1,-1.569375038E1,3.050625038E1,2.100000143E0
6.228936818E1,-1.533750057E1,3.086250114E1,1.556250095E0
6.278936818E1,-1.588125038E1,3.043125153E1,3.750000149E-2
6.328936818E1,-1.725000000E1,2.895000076E1,0.000000000E0
6.378936818E1,-1.719375038E1,2.902500153E1,4.312500060E-1
6.428936768E1,-1.666875076E1,2.998125076E1,1.181250095E0
6.478936768E1,-1.614375114E1,3.039375114E1,1.650000095E0
6.528936768E1,-1.569375038E1,3.048750114E1,1.743750095E0
6.578936768E1,-1.550625038E1,3.054375076E1,1.856250048E0
6.628936768E1,-1.561875057E1,3.056250191E1,2.437500000E0
6.678936768E1,-1.627500153E1,3.046875191E1,3.956250191E0
6.728936768E1,-1.644375038E1,3.037500191E1,4.912500381E0
6.778936768E1,-1.533750057E1,3.140625191E1,6.262500286E0
6.828936768E1,-1.462500095E1,3.249375153E1,5.700000286E0
6.878936768E1,-1.490625095E1,3.256875229E1,5.681250095E0
6.928936768E1,-1.531875038E1,3.285000229E1,5.868750095E0
6.978936768E1,-1.550625038E1,3.301875305E1,5.775000095E0
7.028936768E1,-1.550625038E1,3.301875305E1,5.718750000E0
7.078936768E1,-1.492500019E1,3.343125153E1,5.625000000E0
7.128936768E1,-1.481250095E1,3.384375000E1,5.081250191E0
7.178936768E1,-1.591875076E1,3.277500153E1,3.656250238E0
7.228936768E1,-1.676250076E1,3.138750076E1,4.256250381E0
7.278936768E1,-1.670625114E1,3.135000038E1,4.575000286E0
7.328936768E1,-1.620000076E1,3.106875038E1,3.862500191E0
7.378936768E1,-1.554375076E1,3.058125114E1,2.681250095E0
7.428936768E1,-1.494375038E1,3.037500191E1,1.031250000E0
7.478936768E1,-1.430625057E1,2.996250153E1,-1.237500072E0
7.528936768E1,-1.329375076E1,2.938125038E1,-4.218750000E0
7.578936768E1,-1.245000076E1,2.915625191E1,-6.168750286E0
7.628936768E1,-1.132500076E1,2.878125191E1,-7.368750095E0
7.678936768E1,-9.281250000E0,2.971875191E1,-8.906250000E0
7.728936768E1,-7.706250191E0,3.073125076E1,-1.153125000E1
7.778936768E1,-6.825000286E0,3.082500076E1,-1.310625076E1
7.828936768E1,-6.243750095E0,3.065625191E1,-1.419375038E1
7.878936768E1,-7.293750286E0,3.210000229E1,-1.385625076E1
7.928936768E1,-8.943750381E0,3.414375305E1,-1.323750019E1
7.978936768E1,-1.113750076E1,3.603750229E1,-1.366875076E1
8.028936768E1,-1.366875076E1,3.793125153E1,-1.509375095E1
8.078936768E1,-1.706250000E1,3.866250229E1,-1.533750057E1
8.128936768E1,-2.025000000E1,3.961875153E1,-1.361250019E1
8.178936768E1,-2.291250038E1,4.130625153E1,-1.333125019E1
8.228936768E1,-2.540625191E1,4.297500229E1,-1.273125076E1
8.278936768E1,-2.698125076E1,4.338750076E1,-1.410000038E1
8.328936768E1,-2.891250038E1,4.393125153E1,-1.464375019E1
8.378936768E1,-3.065625191E1,4.483125305E1,-1.419375038E1
8.428936768E1,-3.241875076E1,4.597500229E1,-1.290000057E1
8.478936768E1,-3.399375153E1,4.685625076E1,-1.243125057E1
8.528936768E1,-3.697500229E1,4.798125076E1,-1.216875076E1
8.578936768E1,-4.055625153E1,4.950000381E1,-1.252500057E1
8.628936768E1,-4.507500076E1,5.148750305E1,-1.211250019E1
8.678936768E1,-5.008125305E1,5.441250229E1,-1.113750076E1
8.728936768E1,-5.403750229E1,5.750625229E1,-1.156875038E1
8.756936768E1,-5.645625305E1,5.791875076E1,-1.453125095E1
8.762936768E1,-5.803125381E1,5.876250076E1,-1.680000114E1
8.812936768E1,-5.300625229E1,4.466250229E1,-2.062500000E1
8.862936768E1,-4.989375305E1,3.260625076E1,-2.364375114E1
8.912936768E1,-4.329375076E1,2.600625038E1,-2.799375153E1
8.962936768E1,-5.503125381E1,4.719375229E1,-5.006250381E0
9.012936768E1,-7.756875610E1,7.850625610E1,-9.000000000E0
9.062936768E1,-9.123750305E1,7.321875000E1,2.456250191E0
9.112936768E1,-8.521875000E1,7.271250153E1,3.750000238E0
9.162936768E1,-1.471875095E1,9.136875153E1,9.731250763E0
9.212936768E1,1.207500076E1,9.268125153E1,1.106250048E0
9.262936768E1,1.653750038E1,9.071250153E1,1.125000000E0
9.312936768E1,1.852500153E1,1.047375031E2,5.081250191E0
9.362936768E1,1.239375019E1,1.081125031E2,7.500000477E0
9.412936768E1,1.260000038E1,1.149187546E2,9.112500191E0
9.462936768E1,1.179375076E1,1.062750015E2,4.181250095E0
9.512936768E1,1.725000000E1,1.055625076E2,-1.968750119E0
9.562936768E1,1.001250076E1,1.103062515E2,9.225000381E0
9.612936768E1,1.203750038E1,1.046437531E2,2.306250095E0
9.662936768E1,8.606250763E0,9.112500000E1,-3.356250048E0
9.712936768E1,6.112500191E0,8.259375000E1,1.792500114E1
9.762936768E1,9.618750572E0,7.074375153E1,9.806250572E0
9.812936768E1,2.728125191E1,5.878125381E1,-5.981250286E0
9.862936768E1,3.723750305E1,5.578125381E1,-1.591875076E1
9.912936768E1,2.962500095E0,6.061875153E1,-1.331250072E0
9.962936768E1,-6.930000305E1,1.018500061E2,-1.125000045E-1
1.001293677E2,-1.139250031E2,1.003687515E2,5.156250000E0
1.006293677E2,-1.182937546E2,9.225000000E1,-1.612500072E0
1.011293677E2,-1.200562515E2,8.791875458E1,5.437500000E0
1.016293677E2,-1.122750015E2,7.728750610E1,-1.912500024E0
1.021293677E2,-8.347500610E1,4.500000000E1,-2.062500000E0
1.026293677E2,-6.673125458E1,3.234375000E1,2.756250143E0
1.031293677E2,-5.628750229E1,3.358125305E1,9.937500358E-1
1.036293677E2,-4.908750153E1,3.071250153E1,-1.293750048E0
1.041293677E2,-4.228125000E1,3.078750038E1,-2.418750048E0
1.046293677E2,-3.776250076E1,2.962500191E1,2.362500191E0
1.051293677E2,-3.483750153E1,3.301875305E1,5.868750095E0
1.056293677E2,-3.146250153E1,3.637500000E1,6.131250381E0
1.061293677E2,-2.270625114E1,4.297500229E1,1.211250019E1
1.066293677E2,-1.546875095E1,4.828125381E1,1.070625019E1
1.071293677E2,-4.481250286E0,5.086875153E1,3.075000048E0
1.076293677E2,2.943750143E0,4.753125000E1,-5.775000095E0
1.081293677E2,5.925000191E0,4.563750076E1,-3.356250048E0
1.086293677E2,6.600000381E0,4.492500305E1,1.162500024E0
1.091293677E2,1.102500057E1,4.749375153E1,5.512500286E0
1.096293677E2,1.230000019E1,4.605000305E1,1.387500095E1
1.101293677E2,1.946250153E1,5.570625305E1,1.464375019E1
1.106293677E2,2.531250191E1,6.133125305E1,8.043750763E0
1.111293677E2,2.866875076E1,6.226875305E1,6.150000095E0
1.116293677E2,2.923125076E1,6.112500381E1,9.731250763E0
1.121293677E2,2.518125153E1,5.491875076E1,1.083750057E1
1.126293677E2,1.792500114E1,5.071875381E1,1.201875019E1
1.131293677E2,1.389375019E1,4.861875153E1,1.207500076E1
1.136293677E2,1.237500095E1,4.710000229E1,1.271250057E1
1.141293677E2,1.295625019E1,4.471875000E1,1.048125076E1
1.146293677E2,1.638750076E1,4.616250229E1,1.599375057E1
1.151293677E2,2.006250000E1,4.914375305E1,2.075625038E1
1.156293677E2,2.675625038E1,5.236875153E1,2.002500153E1
1.161293677E2,3.210000229E1,5.413125229E1,2.145000076E1
1.166293677E2,3.918750000E1,5.439375305E1,2.416875076E1
1.171293677E2,4.488750076E1,5.456250381E1,2.596875191E1
1.176293677E2,4.753125000E1,5.580000305E1,2.465625191E1
1.181293677E2,4.295625305E1,6.101250076E1,1.816875076E1
1.186293677E2,4.284375000E1,6.178125381E1,1.445625019E1
1.191293677E2,4.586250305E1,6.090000153E1,1.606875038E1
1.196293677E2,4.987500381E1,6.337500381E1,1.331250095E1
1.201293677E2,4.882500076E1,6.118125153E1,1.554375076E1
1.206293677E2,4.779375076E1,6.309375381E1,1.708125114E1
1.211293677E2,4.755000305E1,6.384375381E1,1.946250153E1
1.216293677E2,5.131875229E1,6.421875000E1,1.929375076E1
1.221293677E2,5.394375229E1,6.474375153E1,1.940625000E1
1.226293677E2,5.293125153E1,6.350625229E1,2.158125114E1
1.231293677E2,5.118750381E1,6.271875381E1,2.199375153E1
1.236293677E2,4.743750000E1,6.260625076E1,2.238750076E1
1.241293677E2,4.683750153E1,6.161250305E1,1.882500076E1
1.246293677E2,4.511250305E1,6.157500076E1,1.950000000E1
1.251293677E2,3.744375229E1,5.859375381E1,2.034375000E1
1.256293677E2,2.865000153E1,5.735625076E1,2.008125114E1
1.261293677E2,2.538750076E1,5.640000153E1,1.582500076E1
1.266293677E2,2.120625114E1,5.619375229E1,1.717500114E1
1.271293677E2,1.539375019E1,5.527500153E1,1.837500000E1
1.276293677E2,1.068750000E1,5.508750153E1,1.790625000E1
1.281293677E2,7.575000286E0,5.471250153E1,1.723125076E1
1.286293677E2,5.193750381E0,5.398125076E1,1.633125114E1
1.291293677E2,4.012500286E0,5.193750381E1,1.471875095E1
1.296293677E2,2.887500048E0,5.330625153E1,1.456875038E1
1.301293677E2,1.200000048E0,5.278125381E1,1.610625076E1
1.306293677E2,-1.312500089E-1,5.295000076E1,1.533750057E1
1.311293677E2,-4.200000286E0,5.385000229E1,1.588125038E1
1.316293677E2,-6.656250477E0,5.296875381E1,1.481250095E1
1.321293677E2,-7.743750095E0,5.340000153E1,1.387500095E1
1.326293677E2,-8.700000763E0,5.203125381E1,1.044375038E1
1.331293677E2,-1.203750038E1,5.145000076E1,8.943750381E0
1.336293677E2,-6.693750381E0,5.280000305E1,8.906250000E0
1.341293677E2,1.593750119E0,5.542500305E1,6.825000286E0
1.346293677E2,-1.181250095E0,5.409375381E1,7.406250477E0
1.351293677E2,-6.450000286E0,5.298750305E1,5.662500381E0
1.356293677E2,3.750000238E0,5.621250153E1,6.937500477E0
1.361293677E2,2.212500095E0,5.591250229E1,7.743750095E0
1.366293677E2,-5.006250381E0,5.377500153E1,8.437500000E0
1.371293677E2,-1.350000024E0,5.386875153E1,8.156250000E0
1.376293677E2,6.131250381E0,5.683125305E1,6.337500095E0
1.381293677E2,-1.237500072E0,5.435625076E1,7.162500381E0
1.386293677E2,-6.056250095E0,5.289375305E1,7.518750191E0
1.391293677E2,-7.106250286E0,5.227500153E1,6.918750286E0
1.396293677E2,-5.437500000E0,5.326875305E1,7.050000191E0
1.401293677E2,2.606250048E0,5.583750153E1,8.268750191E0
1.406293677E2,3.675000191E0,5.525625229E1,4.181250095E0
1.411293677E2,-1.012500048E0,5.456250381E1,4.425000191E0
1.416293677E2,7.218750477E0,5.853750229E1,3.000000000E0
1.421293677E2,1.783125114E1,6.283125305E1,5.118750095E0
1.426293677E2,2.394375038E1,5.962500381E1,8.418750763E0
1.431293677E2,2.073750114E1,6.241875076E1,1.050000000E1
1.436293677E2,2.707500076E1,6.534375000E1,1.595625019E1
1.441293677E2,2.758125114E1,7.305000305E1,1.231875038E1
1.446293677E2,2.784375191E1,7.396875000E1,1.012500000E1
1.451293677E2,3.067500114E1,7.348125458E1,1.303125095E1
1.456293677E2,3.697500229E1,8.109375000E1,1.552500057E1
1.461293677E2,4.666875076E1,8.930625153E1,1.113750076E1
1.466293677E2,6.900000000E1,5.146875381E1,-4.200000286E0
1.471293677E2,9.129375458E1,-3.121875191E1,-2.008125114E1
1.476293677E2,9.391875458E1,-5.175000381E1,-1.745625114E1
1.481293677E2,1.005375061E2,-5.836875153E1,-1.751250076E1
1.486293677E2,1.130625076E2,-5.720625305E1,-2.332500076E1
1.491293677E2,1.216500015E2,-7.351875305E1,-2.626875114E1
1.496293677E2,7.027500153E1,-2.535000038E1,-9.206250191E0
1.501293677E2,-2.943750143E0,1.155000019E1,1.333125019E1
1.506293677E2,-2.060625076E1,2.628750038E1,1.494375038E1
1.511293677E2,-9.493125153E1,7.773750305E1,3.020625114E1
1.516293677E2,-1.553625031E2,1.086562576E2,6.549375153E1
1.521293677E2,-1.451437531E2,1.190250015E2,5.921250153E1
1.526293677E2,-1.382437592E2,1.569562531E2,6.673125458E1
1.531293677E2,-1.130812531E2,2.000437622E2,6.438750458E1
1.536293677E2,-1.080375061E2,2.082937622E2,2.893125153E1
1.541293677E2,-1.239375019E1,1.037625046E2,-2.741250038E1
1.546293677E2,7.183125305E1,5.010000229E1,-1.218750095E1
1.551293677E2,1.072687531E2,1.535625076E1,-2.703750038E1
1.556293677E2,1.419375000E2,-4.012500286E0,-2.823750114E1
1.561293677E2,1.459500122E2,-8.175000191E0,-2.904375076E1
1.566293677E2,1.296000061E2,1.760625076E1,-1.575000095E1
1.571293677E2,1.313625031E2,4.095000076E1,-7.875000477E0
1.576293677E2,1.439250031E2,2.761875153E1,-9.075000763E0
1.581293677E2,1.504312592E2,1.500000095E1,-2.081250000E1
1.586293677E2,1.494187622E2,2.383125114E1,-2.512500048E0
1.591293677E2,1.492125092E2,2.428125191E1,-4.106250286E0
1.596293677E2,1.081125031E2,1.273125076E1,-7.256250381E0
1.601293677E2,6.123750305E1,-3.009375191E1,-1.089375019E1
1.606293677E2,1.286250019E1,1.153125000E1,-1.826250076E1
1.611293677E2,-2.868750191E1,3.210000229E1,-1.027500057E1
1.616293677E2,-3.226875305E1,2.180625153E1,-2.550000191E0
1.621293677E2,-3.390000153E1,1.650000000E1,5.775000095E0
1.626293677E2,-2.979375076E1,1.387500095E1,1.449375057E1
1.631293677E2,-2.332500076E1,3.693750000E1,1.627500153E1
1.636293677E2,-2.398125076E1,2.831250191E1,4.893750191E0
1.641293677E2,-1.321875095E1,4.987500191E0,6.675000191E0
1.646293677E2,-5.231250286E0,9.468750000E0,7.331250191E0
1.651293677E2,-1.396875095E1,1.796250153E1,7.012500286E0
1.656293677E2,-1.085625076E1,3.468750238E0,3.262500048E0
1.661293677E2,-3.300000191E0,1.018125057E1,6.600000381E0
1.666293677E2,-3.300000191E0,1.018125057E1,6.600000381E0
1.671293677E2,-3.300000191E0,1.018125057E1,6.600000381E0
1.676293677E2,-3.300000191E0,1.018125057E1,6.600000381E0
1.681293677E2,-3.300000191E0,1.018125057E1,6.600000381E0
1.686293677E2,-3.300000191E0,1.018125057E1,6.600000381E0
1.691293677E2,-3.300000191E0,1.018125057E1,6.600000381E0
1.696293677E2,-3.300000191E0,1.018125057E1,6.600000381E0
1.701293677E2,-3.300000191E0,1.018125057E1,6.600000381E0
1.706293677E2,-3.300000191E0,1.018125057E1,6.600000381E0
1.711293677E2,-3.300000191E0,1.018125057E1,6.600000381E0
1.716293677E2,-3.300000191E0,1.018125057E1,6.600000381E0
1.721293677E2,-3.300000191E0,1.018125057E1,6.600000381E0
1.726293677E2,-3.300000191E0,1.018125057E1,6.600000381E0
1.731293677E2,-3.300000191E0,1.018125057E1,6.600000381E0
1.736293677E2,-3.300000191E0,1.018125057E1,6.600000381E0
