"Time (s)","X (hPa)"
-5.417417084E-1,1.014869080E3
4.970922917E-1,1.014868317E3
1.535963292E0,1.014867630E3
2.574757292E0,1.014866180E3
3.613596292E0,1.014866180E3
4.652453292E0,1.014866638E3
5.163557292E0,1.014866638E3
6.202368292E0,1.014866638E3
7.241184292E0,1.014866638E3
8.280019292E0,1.014866562E3
9.318863292E0,1.014866409E3
1.035773429E1,1.014864273E3
1.139652829E1,1.014856796E3
1.243543229E1,1.014851303E3
1.347428029E1,1.014842911E3
1.451316929E1,1.014832458E3
1.555205029E1,1.014820480E3
1.659092929E1,1.014809036E3
1.762982429E1,1.014796906E3
1.866873329E1,1.014785156E3
1.970758929E1,1.014773712E3
2.074648029E1,1.014762573E3
2.178530229E1,1.014752197E3
2.282414429E1,1.014743652E3
2.386299629E1,1.014737091E3
2.490185229E1,1.014727478E3
2.594066429E1,1.014713898E3
2.697953329E1,1.014704285E3
2.801840929E1,1.014691696E3
2.905719629E1,1.014677353E3
3.009601229E1,1.014671173E3
3.113483929E1,1.014671173E3
3.217367629E1,1.014676743E3
3.321255229E1,1.014684448E3
3.425138429E1,1.014688034E3
3.529021129E1,1.014690857E3
3.632908129E1,1.014690857E3
3.736791529E1,1.014691162E3
3.840674529E1,1.014691925E3
3.944560729E1,1.014698334E3
4.048444929E1,1.014711533E3
4.152319829E1,1.014730835E3
4.256198029E1,1.014754639E3
4.360076629E1,1.014779892E3
4.463956429E1,1.014806366E3
4.567834329E1,1.014827194E3
4.671713929E1,1.014840317E3
4.775591329E1,1.014848480E3
4.879471429E1,1.014851685E3
4.983351629E1,1.014851685E3
5.087231829E1,1.014847107E3
5.191110029E1,1.014841080E3
5.294989729E1,1.014831772E3
5.398873229E1,1.014819717E3
5.502759729E1,1.014810104E3
5.606643229E1,1.014804382E3
5.710526229E1,1.014795685E3
5.814410029E1,1.014781799E3
5.918291629E1,1.014770889E3
6.022182129E1,1.014763260E3
6.126074129E1,1.014754105E3
6.229960829E1,1.014749908E3
6.333850529E1,1.014749908E3
6.437738429E1,1.014749908E3
6.541629129E1,1.014748993E3
6.645514329E1,1.014748993E3
6.749402929E1,1.014749451E3
6.853288629E1,1.014749451E3
6.957173829E1,1.014749298E3
7.061061729E1,1.014746094E3
7.164950629E1,1.014739304E3
7.268839429E1,1.014730225E3
7.372730329E1,1.014719086E3
7.476621629E1,1.014708710E3
7.580518329E1,1.014698944E3
7.684414129E1,1.014682922E3
7.788303329E1,1.014671402E3
7.892195929E1,1.014666061E3
7.996087729E1,1.014661179E3
8.099979329E1,1.014661179E3
8.203871229E1,1.014675446E3
8.307759129E1,1.014688568E3
8.411647329E1,1.014689484E3
8.515530529E1,1.014689484E3
8.619412229E1,1.014687119E3
8.723295229E1,1.014682312E3
8.827180429E1,1.014676743E3
8.931063129E1,1.014676743E3
9.034949429E1,1.014677353E3
9.138837529E1,1.014677353E3
9.242721429E1,1.014676819E3
9.346607029E1,1.014676819E3
9.450490129E1,1.014680939E3
9.554382229E1,1.014690704E3
9.658276629E1,1.014700394E3
9.762175829E1,1.014712677E3
9.866070929E1,1.014716187E3
9.969959729E1,1.014716187E3
1.007385513E2,1.014713821E3
1.017775393E2,1.014708862E3
1.028164943E2,1.014708862E3
1.038554303E2,1.014712906E3
1.048943433E2,1.014734802E3
1.059332853E2,1.014758148E3
1.069722263E2,1.014787674E3
1.080111193E2,1.014821091E3
1.090500203E2,1.014841003E3
1.100889063E2,1.014850693E3
1.111277663E2,1.014851685E3
1.121667363E2,1.014851685E3
1.132055493E2,1.014848709E3
1.142444293E2,1.014842453E3
1.152833103E2,1.014837036E3
1.163222183E2,1.014836960E3
1.173610773E2,1.014836960E3
1.183999243E2,1.014838257E3
1.194387613E2,1.014841461E3
1.204776013E2,1.014842987E3
1.215164303E2,1.014842987E3
1.225552573E2,1.014840698E3
1.235941123E2,1.014836884E3
1.246329283E2,1.014831009E3
1.256717933E2,1.014828033E3
1.267106303E2,1.014828033E3
1.277494723E2,1.014829407E3
1.287883483E2,1.014835129E3
1.298272563E2,1.014843521E3
1.308661713E2,1.014850311E3
1.319051443E2,1.014855423E3
1.329441833E2,1.014860840E3
1.339832623E2,1.014860840E3
1.350223053E2,1.014854584E3
1.360613113E2,1.014849777E3
1.371002683E2,1.014844284E3
1.381392203E2,1.014843979E3
1.391782673E2,1.014843979E3
1.402173123E2,1.014853668E3
1.412563243E2,1.014857788E3
1.422953613E2,1.014857788E3
1.433343163E2,1.014857712E3
1.443732573E2,1.014852600E3
1.454122513E2,1.014847260E3
1.464512513E2,1.014845505E3
1.474902873E2,1.014845123E3
1.485292923E2,1.014845047E3
1.495682613E2,1.014845047E3
1.506072113E2,1.014846420E3
1.516462113E2,1.014847031E3
1.526851883E2,1.014848022E3
1.537241313E2,1.014849243E3
1.547631463E2,1.014850388E3
1.558020983E2,1.014851685E3
1.568410693E2,1.014853973E3
1.578800853E2,1.014857025E3
1.589190913E2,1.014857025E3
1.599580233E2,1.014856415E3
1.609969563E2,1.014847717E3
1.620358943E2,1.014834518E3
1.630748653E2,1.014816742E3
1.641137963E2,1.014802094E3
1.651526993E2,1.014785309E3
1.661915943E2,1.014777832E3
1.672304873E2,1.014770126E3
1.682693563E2,1.014765091E3
1.693082093E2,1.014758301E3
1.703470663E2,1.014757843E3
1.713859733E2,1.014758301E3
1.724248933E2,1.014764404E3
1.734637633E2,1.014771347E3
1.745026803E2,1.014776459E3
1.755415783E2,1.014778061E3
1.765804763E2,1.014779892E3
1.776194183E2,1.014780350E3
1.786583653E2,1.014782104E3
1.796973143E2,1.014785767E3
1.807362113E2,1.014786301E3
1.817751883E2,1.014786301E3
1.828140703E2,1.014783630E3
1.838530033E2,1.014779510E3
1.848919783E2,1.014775696E3
1.859309593E2,1.014770432E3
1.869699623E2,1.014763031E3
1.880089813E2,1.014752045E3
1.890479103E2,1.014739151E3
1.900868343E2,1.014730835E3
1.911258203E2,1.014721451E3
1.921648073E2,1.014721451E3
1.932037743E2,1.014724884E3
1.942427083E2,1.014734344E3
1.952816203E2,1.014736633E3
1.963205643E2,1.014738617E3
1.973595013E2,1.014738617E3
1.983984973E2,1.014737701E3
1.994374563E2,1.014737701E3
2.004763793E2,1.014742279E3
2.015153343E2,1.014751663E3
2.025543093E2,1.014767303E3
2.035933413E2,1.014783325E3
2.046323433E2,1.014796600E3
2.056713323E2,1.014808960E3
2.067103243E2,1.014818039E3
2.077493573E2,1.014822388E3
2.087883613E2,1.014822388E3
2.098274063E2,1.014818497E3
2.108664473E2,1.014813004E3
2.119054573E2,1.014807053E3
2.129444773E2,1.014799271E3
2.139835303E2,1.014791641E3
2.150225643E2,1.014785843E3
2.160615883E2,1.014781036E3
2.171006023E2,1.014779053E3
2.181396113E2,1.014777069E3
2.191786323E2,1.014774933E3
2.202176233E2,1.014769974E3
2.212566183E2,1.014762726E3
2.222955553E2,1.014750900E3
2.233344883E2,1.014741669E3
2.243734553E2,1.014726105E3
2.254124293E2,1.014708481E3
2.264513833E2,1.014688644E3
2.274903073E2,1.014671097E3
2.285293163E2,1.014645233E3
2.295683123E2,1.014621048E3
2.306072583E2,1.014604340E3
2.316462483E2,1.014589920E3
2.326852433E2,1.014579849E3
2.337242063E2,1.014579544E3
2.347631663E2,1.014577789E3
2.358021433E2,1.014579544E3
2.368410903E2,1.014586563E3
2.378800483E2,1.014599991E3
2.389190323E2,1.014614410E3
2.399579953E2,1.014635162E3
2.409969463E2,1.014664764E3
2.420359053E2,1.014697723E3
2.430748283E2,1.014734344E3
2.441137293E2,1.014771652E3
2.451526903E2,1.014800415E3
2.461916093E2,1.014822159E3
2.472304503E2,1.014822159E3
2.482692953E2,1.014819183E3
2.493081593E2,1.014807739E3
2.503470413E2,1.014798660E3
2.513860323E2,1.014795456E3
2.524250323E2,1.014795456E3
2.534639703E2,1.014798279E3
2.545029393E2,1.014798279E3
2.555419943E2,1.014794388E3
2.565810303E2,1.014789352E3
2.576200333E2,1.014778671E3
2.586590543E2,1.014772873E3
2.596980793E2,1.014765625E3
2.607370183E2,1.014761963E3
2.617760213E2,1.014757538E3
2.628150593E2,1.014756775E3
2.638540373E2,1.014754639E3
2.648931093E2,1.014754639E3
2.659321713E2,1.014757385E3
2.669711853E2,1.014764709E3
2.680102303E2,1.014774475E3
2.690491943E2,1.014786835E3
2.700881173E2,1.014800110E3
2.711270633E2,1.014810944E3
2.721659923E2,1.014816666E3
2.732048933E2,1.014816666E3
2.742437693E2,1.014814377E3
2.752827083E2,1.014810410E3
2.763216303E2,1.014806366E3
2.773605433E2,1.014802933E3
2.783994663E2,1.014802704E3
2.794384273E2,1.014800720E3
2.804773743E2,1.014800720E3
2.815162853E2,1.014801483E3
2.825552113E2,1.014802246E3
2.835941213E2,1.014803543E3
2.846330203E2,1.014806366E3
2.856719033E2,1.014808502E3
2.867107703E2,1.014812622E3
2.877496943E2,1.014817886E3
2.887886483E2,1.014822540E3
2.898275703E2,1.014825439E3
2.908664343E2,1.014830017E3
2.919052903E2,1.014830475E3
2.929441533E2,1.014830475E3
2.939830123E2,1.014830475E3
2.950218423E2,1.014830322E3
2.960607003E2,1.014830322E3
2.970995303E2,1.014830322E3
2.981383853E2,1.014831238E3
2.991772583E2,1.014831619E3
3.002161633E2,1.014832764E3
3.012550453E2,1.014834061E3
3.022940113E2,1.014834061E3
3.033330483E2,1.014831696E3
3.043720543E2,1.014823074E3
3.054110373E2,1.014812775E3
3.064499783E2,1.014803772E3
3.074889123E2,1.014788132E3
3.085278433E2,1.014766083E3
3.095668023E2,1.014744720E3
3.106057593E2,1.014722977E3
3.116446773E2,1.014710617E3
3.126836293E2,1.014706345E3
3.137226163E2,1.014706345E3
3.147616263E2,1.014712830E3
3.158005533E2,1.014723816E3
3.168394473E2,1.014723816E3
3.178783563E2,1.014717636E3
3.189172203E2,1.014709473E3
3.199560023E2,1.014703445E3
3.209948503E2,1.014693451E3
3.220337643E2,1.014682388E3
3.230726633E2,1.014675903E3
3.241115603E2,1.014671173E3
3.251504503E2,1.014669418E3
3.261893633E2,1.014669418E3
3.272282823E2,1.014670181E3
3.282672123E2,1.014671631E3
3.293060733E2,1.014671631E3
3.303449183E2,1.014670868E3
3.313837463E2,1.014670639E3
3.324225933E2,1.014667282E3
3.334614193E2,1.014662552E3
3.345002703E2,1.014659119E3
3.355391353E2,1.014652939E3
3.365779303E2,1.014647751E3
3.376167213E2,1.014647751E3
3.386555293E2,1.014650650E3
3.396943423E2,1.014655838E3
3.407331973E2,1.014664230E3
3.417721013E2,1.014673309E3
3.428109573E2,1.014680939E3
3.438498063E2,1.014693680E3
3.448886663E2,1.014710312E3
3.459274933E2,1.014728470E3
3.469662703E2,1.014750214E3
3.480050423E2,1.014773331E3
3.490438303E2,1.014785919E3
3.500826783E2,1.014791870E3
3.511215373E2,1.014791870E3
3.521604043E2,1.014790726E3
3.531992193E2,1.014790726E3
3.542380603E2,1.014796219E3
3.552768703E2,1.014802475E3
3.563156623E2,1.014805450E3
3.573544753E2,1.014805450E3
3.583932933E2,1.014797974E3
3.594320723E2,1.014785385E3
3.604708643E2,1.014769745E3
3.615096643E2,1.014753723E3
3.625484643E2,1.014742126E3
3.635872873E2,1.014735947E3
3.646261413E2,1.014730530E3
3.656649953E2,1.014727402E3
3.667038603E2,1.014727402E3
3.677426883E2,1.014733734E3
3.687815163E2,1.014735031E3
3.698203363E2,1.014737244E3
3.708591023E2,1.014744644E3
3.718979173E2,1.014752502E3
3.729367093E2,1.014759445E3
3.739755143E2,1.014770660E3
3.750143543E2,1.014784622E3
3.760532773E2,1.014798889E3
3.770921883E2,1.014807358E3
3.781310343E2,1.014807358E3
3.791699223E2,1.014798660E3
3.802088493E2,1.014783249E3
3.812477223E2,1.014761353E3
3.822866583E2,1.014738693E3
3.833255163E2,1.014720383E3
3.843643943E2,1.014705048E3
3.854032903E2,1.014693832E3
3.864421833E2,1.014688568E3
3.874811273E2,1.014682693E3
3.885200483E2,1.014677124E3
3.895589713E2,1.014673004E3
3.905979303E2,1.014666901E3
3.916368813E2,1.014659576E3
3.926757793E2,1.014654541E3
3.937146313E2,1.014651337E3
3.947534943E2,1.014647980E3
3.957923733E2,1.014645844E3
3.968312723E2,1.014643707E3
3.978701163E2,1.014640579E3
3.989090483E2,1.014635544E3
3.999479393E2,1.014629974E3
4.009868003E2,1.014620361E3
4.020256573E2,1.014613800E3
4.030644553E2,1.014613800E3
4.041032043E2,1.014617081E3
4.051419603E2,1.014632874E3
4.061807233E2,1.014656296E3
4.072194793E2,1.014681244E3
4.082582553E2,1.014708405E3
4.092970083E2,1.014740219E3
4.103357263E2,1.014762115E3
4.113744643E2,1.014776917E3
4.124132053E2,1.014786453E3
4.134519963E2,1.014786453E3
4.144907873E2,1.014784698E3
4.155295643E2,1.014778519E3
4.165683413E2,1.014774857E3
4.176070983E2,1.014774246E3
4.186459383E2,1.014770050E3
4.196847993E2,1.014762115E3
4.207236453E2,1.014753876E3
4.217624853E2,1.014746628E3
4.228013373E2,1.014738007E3
4.238401523E2,1.014735489E3
4.248790093E2,1.014735489E3
4.259178593E2,1.014739227E3
4.269567063E2,1.014749146E3
4.279955663E2,1.014761734E3
4.290344033E2,1.014773560E3
4.300732553E2,1.014788437E3
4.311120743E2,1.014798660E3
4.321509243E2,1.014801178E3
4.331897703E2,1.014801178E3
4.342286063E2,1.014798889E3
4.352674223E2,1.014794769E3
4.363062673E2,1.014791260E3
4.373450823E2,1.014790344E3
4.383838993E2,1.014790344E3
4.394227373E2,1.014790649E3
4.404615373E2,1.014792404E3
4.415003873E2,1.014792786E3
4.425391793E2,1.014793091E3
4.435780453E2,1.014793091E3
4.446169133E2,1.014792099E3
4.456557523E2,1.014789276E3
4.466946093E2,1.014788361E3
4.477334433E2,1.014786835E3
4.487723393E2,1.014782639E3
4.498111583E2,1.014781342E3
4.508499433E2,1.014781342E3
4.518887703E2,1.014781494E3
4.529276033E2,1.014783249E3
4.539663853E2,1.014786911E3
4.550051223E2,1.014787827E3
4.560439453E2,1.014787827E3
4.570827313E2,1.014785690E3
4.581215223E2,1.014784470E3
4.591602643E2,1.014784470E3
4.601990203E2,1.014785538E3
4.612378113E2,1.014791412E3
4.622765903E2,1.014793777E3
4.633153923E2,1.014793777E3
4.643541843E2,1.014792938E3
4.653930383E2,1.014790802E3
4.664318763E2,1.014787445E3
4.674707483E2,1.014785538E3
4.685096263E2,1.014784775E3
4.695485433E2,1.014784088E3
4.705874083E2,1.014783859E3
4.716263513E2,1.014783859E3
4.726652243E2,1.014786072E3
4.737040813E2,1.014788361E3
4.747429213E2,1.014789124E3
4.757817043E2,1.014790192E3
4.768204983E2,1.014791946E3
4.778592523E2,1.014792480E3
4.788981153E2,1.014796143E3
4.799369023E2,1.014799500E3
4.809757243E2,1.014802094E3
4.820146033E2,1.014803619E3
4.830534283E2,1.014803848E3
4.840922373E2,1.014803848E3
4.851310583E2,1.014803619E3
4.861699403E2,1.014803619E3
4.872088083E2,1.014804916E3
4.882476543E2,1.014806442E3
4.892865293E2,1.014806442E3
4.903253653E2,1.014806442E3
4.913641893E2,1.014806595E3
4.924030213E2,1.014808578E3
4.934419053E2,1.014809647E3
4.944807973E2,1.014812546E3
4.955196333E2,1.014816895E3
4.965584953E2,1.014817276E3
4.975973953E2,1.014817963E3
4.986362333E2,1.014818344E3
4.996750893E2,1.014819946E3
5.007139773E2,1.014822311E3
5.017528183E2,1.014826736E3
5.027916343E2,1.014829712E3
5.038304513E2,1.014832611E3
5.048692653E2,1.014835205E3
5.059081083E2,1.014835281E3
5.069468573E2,1.014835663E3
5.079855943E2,1.014836197E3
5.090243443E2,1.014836197E3
5.100630833E2,1.014834900E3
5.111018543E2,1.014834671E3
5.121406683E2,1.014832535E3
5.131795233E2,1.014832458E3
5.142183653E2,1.014832535E3
5.152570803E2,1.014833221E3
5.162958653E2,1.014833603E3
5.173346123E2,1.014834671E3
5.183733973E2,1.014834671E3
5.194122003E2,1.014834213E3
5.204510453E2,1.014832993E3
5.214898473E2,1.014832840E3
5.225286473E2,1.014832840E3
5.235674863E2,1.014832916E3
5.246064043E2,1.014832993E3
5.256452173E2,1.014834900E3
5.266840283E2,1.014838409E3
5.277229053E2,1.014838409E3
5.287616993E2,1.014837799E3
5.298005533E2,1.014837494E3
5.308394143E2,1.014834824E3
5.318782553E2,1.014831238E3
5.329171143E2,1.014831238E3
5.339559373E2,1.014830856E3
5.349947633E2,1.014828491E3
5.360336083E2,1.014828491E3
5.370723803E2,1.014829330E3
5.381111703E2,1.014830627E3
5.391499803E2,1.014832306E3
5.401888203E2,1.014832611E3
5.412276413E2,1.014832611E3
5.422664393E2,1.014832611E3
5.433053013E2,1.014831467E3
5.443441673E2,1.014829407E3
5.453829703E2,1.014829407E3
5.464217323E2,1.014830627E3
5.474604923E2,1.014831467E3
5.484992863E2,1.014832077E3
5.495380963E2,1.014833908E3
5.505769673E2,1.014833908E3
5.516157693E2,1.014833374E3
5.526545543E2,1.014832230E3
5.536933413E2,1.014830627E3
5.547321063E2,1.014829483E3
5.557709233E2,1.014827881E3
5.568097173E2,1.014827652E3
5.578485193E2,1.014826889E3
5.588873063E2,1.014825287E3
5.599260843E2,1.014824829E3
5.609648373E2,1.014822235E3
5.620036193E2,1.014821854E3
5.630423943E2,1.014821396E3
5.640812063E2,1.014820557E3
5.651200013E2,1.014820557E3
5.661587713E2,1.014819565E3
5.671975283E2,1.014819565E3
5.682363313E2,1.014817123E3
5.692751133E2,1.014815750E3
5.703138843E2,1.014815521E3
5.713526663E2,1.014814377E3
5.723914063E2,1.014814224E3
5.734301513E2,1.014813385E3
5.744689803E2,1.014811630E3
5.755077943E2,1.014807510E3
5.765465973E2,1.014803619E3
5.775853793E2,1.014800339E3
5.786242073E2,1.014797897E3
5.796630813E2,1.014795609E3
5.807019583E2,1.014792480E3
5.817408033E2,1.014792480E3
5.827796443E2,1.014792709E3
5.838185333E2,1.014795303E3
5.848573293E2,1.014800644E3
5.858961153E2,1.014807358E3
5.869348773E2,1.014810562E3
5.879737043E2,1.014810562E3
5.890125723E2,1.014807434E3
5.900514173E2,1.014802856E3
5.910902053E2,1.014798889E3
5.921290583E2,1.014798889E3
5.931679573E2,1.014800186E3
5.942068393E2,1.014805298E3
5.952457043E2,1.014811172E3
5.962845683E2,1.014814758E3
5.973234943E2,1.014815903E3
5.983623933E2,1.014817810E3
5.994012593E2,1.014818878E3
6.004401043E2,1.014818878E3
6.014789713E2,1.014820480E3
6.025178643E2,1.014821625E3
6.035567143E2,1.014821625E3
6.045955963E2,1.014819870E3
6.056344403E2,1.014816742E3
6.066732693E2,1.014815140E3
6.077121013E2,1.014814911E3
6.087508903E2,1.014814835E3
6.097897363E2,1.014814911E3
6.108286063E2,1.014818649E3
6.118675603E2,1.014818649E3
6.129065193E2,1.014818649E3
6.139454333E2,1.014814835E3
6.149843783E2,1.014813843E3
6.160233313E2,1.014813309E3
6.170622233E2,1.014813309E3
6.181011593E2,1.014817963E3
6.191400363E2,1.014825897E3
6.201789653E2,1.014829712E3
6.212179183E2,1.014832993E3
6.222568963E2,1.014836197E3
6.232958183E2,1.014836197E3
6.243347093E2,1.014836426E3
6.253736493E2,1.014836502E3
6.264125203E2,1.014836502E3
6.274513433E2,1.014831467E3
6.284901653E2,1.014828491E3
6.295290533E2,1.014822159E3
6.305678713E2,1.014812469E3
6.316067173E2,1.014803009E3
6.326455513E2,1.014799423E3
6.336843653E2,1.014790649E3
6.347232143E2,1.014789200E3
6.357620533E2,1.014789200E3
6.368008873E2,1.014791260E3
6.378397953E2,1.014791412E3
6.388785933E2,1.014791412E3
6.399174603E2,1.014790497E3
6.409562293E2,1.014786606E3
6.419950583E2,1.014780731E3
6.430338653E2,1.014770126E3
6.440726883E2,1.014759140E3
6.451115103E2,1.014747086E3
6.461503623E2,1.014734268E3
6.471892003E2,1.014724655E3
6.482280073E2,1.014716721E3
6.492668553E2,1.014711685E3
6.503056923E2,1.014706879E3
6.513445653E2,1.014704819E3
6.523835673E2,1.014704132E3
6.534225573E2,1.014704132E3
6.544615773E2,1.014706726E3
6.555005323E2,1.014709778E3
6.565394773E2,1.014712448E3
6.575784943E2,1.014712601E3
6.586174983E2,1.014712677E3
6.596565253E2,1.014719772E3
6.606955693E2,1.014731369E3
6.617345773E2,1.014744339E3
6.627735473E2,1.014761047E3
6.638125613E2,1.014772644E3
6.648515313E2,1.014776230E3
6.658905683E2,1.014776230E3
6.669295703E2,1.014774323E3
6.679685813E2,1.014769135E3
6.690075913E2,1.014769135E3
6.700465903E2,1.014777908E3
6.710855783E2,1.014792633E3
6.721245683E2,1.014814606E3
6.731636143E2,1.014842072E3
6.742026763E2,1.014864731E3
6.752417703E2,1.014883423E3
6.762808263E2,1.014897156E3
6.773198503E2,1.014902039E3
6.783588953E2,1.014902039E3
6.793979433E2,1.014901276E3
6.804370373E2,1.014897995E3
6.814761153E2,1.014891510E3
6.825151463E2,1.014887238E3
6.835541433E2,1.014881439E3
6.845932273E2,1.014877777E3
6.856322993E2,1.014876175E3
6.866714193E2,1.014876022E3
6.877104413E2,1.014875641E3
6.887494383E2,1.014875641E3
6.897884093E2,1.014875488E3
6.908273813E2,1.014874344E3
6.918663793E2,1.014872055E3
6.929054043E2,1.014869537E3
6.939444233E2,1.014867935E3
6.949834293E2,1.014864044E3
6.960224783E2,1.014859924E3
6.970614783E2,1.014857254E3
6.981005373E2,1.014856262E3
6.991395293E2,1.014856262E3
7.001785853E2,1.014859619E3
7.012175973E2,1.014863968E3
7.022566283E2,1.014867706E3
7.032955893E2,1.014869537E3
7.043345893E2,1.014872360E3
7.053735743E2,1.014873657E3
7.064125643E2,1.014873657E3
7.074515633E2,1.014872284E3
7.084906163E2,1.014869614E3
7.095296913E2,1.014866333E3
7.105686983E2,1.014866333E3
7.116076563E2,1.014866333E3
7.126466843E2,1.014870605E3
7.136856853E2,1.014876785E3
7.147246273E2,1.014882507E3
7.157635643E2,1.014884262E3
7.168025653E2,1.014884262E3
7.178415923E2,1.014882812E3
7.188805903E2,1.014879074E3
7.199196583E2,1.014874802E3
7.209586673E2,1.014871368E3
7.219976793E2,1.014869156E3
7.230366813E2,1.014867020E3
7.240756633E2,1.014866333E3
7.251145743E2,1.014866104E3
7.261534273E2,1.014865417E3
7.271923343E2,1.014863968E3
7.282312153E2,1.014861984E3
7.292701063E2,1.014858017E3
7.303090243E2,1.014847183E3
7.313479933E2,1.014840469E3
7.323869853E2,1.014835510E3
7.334259753E2,1.014830322E3
7.344649563E2,1.014820251E3
7.355039313E2,1.014811325E3
7.365428173E2,1.014798050E3
7.375817143E2,1.014778366E3
7.386206013E2,1.014756393E3
