"Time (s)","Magnetic field x (µT)","Magnetic field y (µT)","Magnetic field z (µT)"
2.843057380E-1,7.837500095E0,-4.378125000E1,-2.829375076E1
7.843057380E-1,9.187500000E0,-4.273125076E1,-2.818125153E1
1.284305738E0,1.083750057E1,-3.967500305E1,-3.031875038E1
1.784305738E0,1.353750038E1,-3.513750076E1,-3.176250076E1
2.284305738E0,1.128750038E1,-3.534375000E1,-3.232500076E1
2.784305738E0,6.581250191E0,-3.481875229E1,-3.240000153E1
3.284305738E0,7.687500119E-1,-3.151875114E1,-2.977500153E1
3.784305738E0,-3.543750048E0,-2.803125191E1,-2.743125153E1
4.284305738E0,-8.550000191E0,-2.381250000E1,-2.610000038E1
4.784305738E0,-1.383750057E1,-1.948125076E1,-2.454375076E1
5.284305738E0,-1.968750000E1,-1.642500114E1,-2.131875038E1
5.784305738E0,-2.666250038E1,-1.453125095E1,-1.725000000E1
6.284305738E0,-3.157500076E1,-1.102500057E1,-1.312500095E1
6.784305738E0,-3.354375076E1,-8.025000572E0,-9.693750381E0
7.284305738E0,-3.328125000E1,-7.106250286E0,-8.606250763E0
7.784305738E0,-3.315000153E1,-6.937500477E0,-7.406250477E0
8.284305738E0,-3.384375000E1,-6.150000095E0,-5.231250286E0
8.784305738E0,-3.446250153E1,-6.450000286E0,-2.925000191E0
9.284305738E0,-3.461250305E1,-6.131250381E0,-1.950000048E0
9.784305738E0,-3.444375229E1,-5.943750381E0,-1.912500024E0
1.028430574E1,-3.369375229E1,-5.868750095E0,-3.000000000E0
1.078430574E1,-3.369375229E1,-6.300000191E0,-4.031250000E0
1.128430574E1,-3.393750000E1,-6.975000381E0,-4.181250095E0
1.178430574E1,-3.384375000E1,-7.893750191E0,-4.537500381E0
1.228430574E1,-3.320625305E1,-8.287500381E0,-5.287500381E0
1.278430574E1,-3.262500000E1,-8.212500572E0,-6.543750286E0
1.328430574E1,-3.221250153E1,-8.400000572E0,-7.125000477E0
1.378430574E1,-3.213750076E1,-8.568750381E0,-7.106250286E0
1.428430574E1,-3.223125076E1,-8.531250000E0,-6.318750381E0
1.478430574E1,-3.213750076E1,-7.818750381E0,-4.631250381E0
1.528430574E1,-3.183750153E1,-7.406250477E0,-4.500000000E0
1.578430574E1,-3.176250076E1,-6.975000381E0,-4.668750286E0
1.628430574E1,-3.155625153E1,-6.993750095E0,-4.500000000E0
1.678430574E1,-3.159375191E1,-6.581250191E0,-3.993750095E0
1.728430574E1,-3.172500038E1,-6.393750191E0,-4.143750191E0
1.778430574E1,-3.168750191E1,-6.300000191E0,-3.881250143E0
1.828430574E1,-3.170625114E1,-5.887500286E0,-3.637500048E0
1.878430574E1,-3.193125153E1,-5.737500191E0,-4.087500095E0
1.928430574E1,-3.198750114E1,-5.793750286E0,-3.637500048E0
1.978430574E1,-3.198750114E1,-5.643750191E0,-3.112500191E0
2.028430574E1,-3.202500153E1,-5.887500286E0,-4.350000381E0
2.078430574E1,-3.225000000E1,-6.243750095E0,-4.800000191E0
2.128430574E1,-3.245625305E1,-6.450000286E0,-4.875000000E0
2.178430574E1,-3.264375305E1,-6.693750381E0,-4.893750191E0
2.228430574E1,-3.260625076E1,-6.937500477E0,-4.575000286E0
2.278430574E1,-3.228750229E1,-7.125000477E0,-4.293750286E0
2.328430574E1,-3.238125229E1,-7.106250286E0,-4.406250000E0
2.378430574E1,-3.225000000E1,-7.406250477E0,-5.493750095E0
2.428430574E1,-3.234375000E1,-6.825000286E0,-4.087500095E0
2.478430574E1,-3.195000076E1,-6.187500477E0,-3.506250143E0
2.528430574E1,-3.196875191E1,-5.737500191E0,-3.131250143E0
2.578430574E1,-3.221250153E1,-5.437500000E0,-3.768750191E0
2.628430574E1,-3.243750000E1,-6.150000095E0,-4.912500381E0
2.678430574E1,-3.255000305E1,-6.018750191E0,-4.575000286E0
2.728430574E1,-3.238125229E1,-5.606250286E0,-4.031250000E0
2.778430574E1,-3.266250229E1,-4.875000000E0,-2.775000095E0
2.828430574E1,-3.290625000E1,-4.781250000E0,-2.981250048E0
2.878430574E1,-3.322500229E1,-4.931250095E0,-2.887500048E0
2.928430574E1,-3.307500076E1,-4.706250191E0,-2.343750000E0
2.978430574E1,-3.266250229E1,-4.368750095E0,-1.593750119E0
3.028430574E1,-3.258750153E1,-3.168750048E0,-7.125000358E-1
3.078430574E1,-3.268125153E1,-2.681250095E0,-9.562500119E-1
3.128430574E1,-3.286875153E1,-2.250000000E0,-1.406250000E0
3.178430574E1,-3.288750076E1,-1.987500072E0,-1.556250095E0
3.228430574E1,-3.266250229E1,-1.781250119E0,-1.368750095E0
3.278430574E1,-3.245625305E1,-1.518750072E0,-1.256250024E0
3.328430574E1,-3.240000153E1,-1.481250048E0,-1.537500024E0
3.378430574E1,-3.245625305E1,-1.481250048E0,-1.593750119E0
3.428430574E1,-3.238125229E1,-1.556250095E0,-1.425000072E0
3.478430574E1,-3.230625153E1,-2.062500000E0,-1.368750095E0
3.528430574E1,-3.225000000E1,-2.981250048E0,-1.200000048E0
3.578430574E1,-3.223125076E1,-3.562500238E0,-1.031250000E0
3.628430574E1,-3.228750229E1,-3.450000048E0,-6.187500358E-1
3.678430574E1,-3.241875076E1,-3.131250143E0,-4.687500298E-1
3.728430574E1,-3.245625305E1,-2.812500000E0,-2.250000089E-1
3.778430613E1,-3.253125000E1,-2.625000000E0,-3.937500119E-1
3.828430613E1,-3.253125000E1,-2.531250000E0,-9.937500358E-1
3.878430613E1,-3.262500000E1,-2.043750048E0,-1.125000000E0
3.928430613E1,-3.271875000E1,-1.312500000E0,-1.125000000E0
3.978430613E1,-3.283125305E1,-9.937500358E-1,-1.181250095E0
4.028430613E1,-3.268125153E1,-1.181250095E0,-1.987500072E0
4.078430613E1,-3.268125153E1,-1.425000072E0,-2.118750095E0
4.128430613E1,-3.275625229E1,-1.725000024E0,-2.212500095E0
4.178430613E1,-3.268125153E1,-1.837500095E0,-1.968750119E0
4.228430613E1,-3.268125153E1,-1.875000119E0,-1.387500048E0
4.278430613E1,-3.260625076E1,-1.950000048E0,-1.256250024E0
4.328430613E1,-3.258750153E1,-2.193750143E0,-1.256250024E0
4.378430613E1,-3.258750153E1,-2.625000000E0,-1.837500095E0
4.428430613E1,-3.286875153E1,-2.887500048E0,-9.187500477E-1
4.478430613E1,-3.309375000E1,-3.168750048E0,-6.562500000E-1
4.528430613E1,-3.324375153E1,-3.600000143E0,-2.437500060E-1
4.578430613E1,-3.320625305E1,-4.143750191E0,0.000000000E0
4.628430613E1,-3.335625076E1,-4.800000191E0,1.312500089E-1
4.678430613E1,-3.341250229E1,-5.193750381E0,3.187500238E-1
4.728430613E1,-3.337500000E1,-5.400000095E0,2.625000179E-1
4.778430613E1,-3.333750153E1,-5.700000286E0,1.256250024E0
4.828430613E1,-3.301875305E1,-5.887500286E0,1.087500095E0
4.878430613E1,-3.268125153E1,-6.206250191E0,9.562500119E-1
4.928430613E1,-3.253125000E1,-6.093750477E0,1.237500072E0
4.978430613E1,-3.255000305E1,-6.000000000E0,1.275000095E0
5.028430613E1,-3.240000153E1,-5.868750095E0,1.200000048E0
5.078430613E1,-3.241875076E1,-5.925000191E0,1.443750024E0
5.128430613E1,-3.221250153E1,-5.550000191E0,2.437500000E0
5.178430613E1,-3.200625229E1,-4.350000381E0,2.700000048E0
5.228430613E1,-3.187500191E1,-3.225000143E0,2.475000143E0
5.278430613E1,-3.166875076E1,-1.706250072E0,1.987500072E0
5.328430613E1,-3.112500191E1,-1.125000045E-1,3.000000119E-1
5.378430613E1,-3.071250153E1,2.025000095E0,-1.293750048E0
5.428430613E1,-3.024375153E1,4.368750095E0,-2.793750048E0
5.478430613E1,-2.990625191E1,6.431250095E0,-4.706250191E0
5.528430613E1,-2.983125114E1,7.875000477E0,-6.712500095E0
5.578430613E1,-2.956875038E1,8.587500572E0,-8.775000572E0
5.628430613E1,-2.951250076E1,9.225000381E0,-9.562500000E0
5.678430613E1,-2.964375114E1,9.637500763E0,-1.025625038E1
5.728430613E1,-3.005625153E1,9.675000191E0,-1.023750019E1
5.778430613E1,-3.037500191E1,9.131250381E0,-1.003125000E1
5.828430613E1,-3.046875191E1,8.756250381E0,-9.637500763E0
5.878430613E1,-3.045000076E1,8.775000572E0,-9.243750572E0
5.928430613E1,-3.037500191E1,8.756250381E0,-9.431250572E0
5.978430613E1,-3.056250191E1,8.906250000E0,-9.093750000E0
6.028430613E1,-3.067500114E1,8.625000000E0,-9.825000763E0
6.078430613E1,-3.052500153E1,8.400000572E0,-1.038750076E1
6.128430613E1,-3.022500038E1,8.418750763E0,-1.113750076E1
6.178430613E1,-3.030000114E1,8.456250191E0,-1.194375038E1
6.228430613E1,-3.058125114E1,8.006250381E0,-1.218750095E1
6.278430613E1,-3.076875114E1,7.331250191E0,-1.216875076E1
6.328430613E1,-3.093750191E1,6.656250477E0,-1.235625076E1
6.378430613E1,-3.090000153E1,6.056250095E0,-1.245000076E1
6.428430613E1,-3.095625114E1,5.775000095E0,-1.155000019E1
6.478430613E1,-3.112500191E1,5.362500191E0,-1.080000019E1
6.528430613E1,-3.140625191E1,4.743750095E0,-9.956250191E0
6.578430613E1,-3.135000038E1,4.050000191E0,-8.906250000E0
6.628430613E1,-3.125625038E1,3.450000048E0,-8.493750572E0
6.678430613E1,-3.142500114E1,2.943750143E0,-8.250000000E0
6.728430613E1,-3.138750076E1,2.662500143E0,-7.893750191E0
6.778430613E1,-3.140625191E1,2.643750191E0,-7.687500477E0
6.828430613E1,-3.125625038E1,3.018750191E0,-7.593750477E0
6.878430613E1,-3.086250114E1,3.356250048E0,-8.081250191E0
6.928430613E1,-3.050625038E1,3.525000095E0,-8.887500763E0
6.978430613E1,-3.016875076E1,3.618750095E0,-9.525000572E0
7.028430613E1,-2.983125114E1,3.993750095E0,-9.956250191E0
7.078430613E1,-2.923125076E1,4.125000000E0,-1.074375057E1
7.128430613E1,-2.910000038E1,3.843750238E0,-1.130625057E1
7.178430613E1,-2.904375076E1,3.618750095E0,-1.156875038E1
7.228430613E1,-2.898750114E1,3.150000095E0,-1.175625038E1
7.278430613E1,-2.885625076E1,2.943750143E0,-1.149375057E1
7.328430613E1,-2.870625114E1,3.018750191E0,-1.096875000E1
7.378430613E1,-2.827500153E1,3.000000000E0,-1.074375057E1
7.428430613E1,-2.833125114E1,2.587500095E0,-1.065000057E1
7.478430613E1,-2.874375153E1,3.037500143E0,-1.048125076E1
7.528430613E1,-2.865000153E1,3.787500143E0,-1.025625038E1
7.578430613E1,-2.865000153E1,4.087500095E0,-9.918750763E0
7.628430613E1,-2.874375153E1,4.256250381E0,-1.008750057E1
7.678430613E1,-2.925000191E1,4.087500095E0,-1.010625076E1
7.728430613E1,-2.962500191E1,3.937500238E0,-9.750000000E0
7.778430613E1,-3.001875114E1,4.293750286E0,-9.487500191E0
7.828430613E1,-3.003750038E1,4.968750000E0,-9.375000000E0
7.878430613E1,-2.973750114E1,4.687500000E0,-1.006875038E1
7.928430613E1,-2.988750076E1,4.500000000E0,-1.008750057E1
7.978430613E1,-2.968125153E1,4.368750095E0,-1.117500019E1
8.028430613E1,-2.971875191E1,4.443750381E0,-1.123125076E1
8.078430613E1,-2.968125153E1,4.725000381E0,-1.095000076E1
8.128430613E1,-2.953125191E1,4.968750000E0,-1.117500019E1
8.178430613E1,-2.985000038E1,4.856250286E0,-1.164375019E1
8.228430613E1,-3.001875114E1,4.743750095E0,-1.149375057E1
8.278430613E1,-3.013125038E1,5.043750286E0,-1.018125057E1
8.328430613E1,-3.020625114E1,5.212500095E0,-9.356250763E0
8.378430613E1,-3.048750114E1,5.287500381E0,-8.512500763E0
8.428430613E1,-3.058125114E1,5.362500191E0,-8.006250381E0
8.478430613E1,-3.056250191E1,5.456250191E0,-7.912500381E0
8.528430613E1,-3.073125076E1,5.512500286E0,-7.537500381E0
8.578430613E1,-3.060000038E1,5.775000095E0,-7.443750381E0
8.628430613E1,-3.078750038E1,6.225000381E0,-7.312500477E0
8.678430613E1,-3.090000153E1,6.825000286E0,-7.781250477E0
8.728430613E1,-3.080625153E1,7.706250191E0,-9.093750000E0
8.778430613E1,-3.082500076E1,9.412500381E0,-8.756250381E0
8.828430613E1,-3.076875114E1,1.141875076E1,-8.550000191E0
8.878430613E1,-3.086250114E1,1.353750038E1,-8.287500381E0
8.928430613E1,-3.090000153E1,1.582500076E1,-7.875000477E0
8.978430613E1,-3.097500038E1,1.848750114E1,-6.600000381E0
9.028430613E1,-3.073125076E1,2.105625153E1,-5.850000381E0
9.078430613E1,-3.046875191E1,2.371875000E1,-4.443750381E0
9.128430613E1,-3.024375153E1,2.617500114E1,-2.268750191E0
9.178430613E1,-2.992500114E1,2.805000114E1,-1.462500095E0
9.228430613E1,-2.973750114E1,2.938125038E1,-1.031250000E0
9.278430613E1,-2.962500191E1,3.048750114E1,-6.937500238E-1
9.328430613E1,-2.936250114E1,3.114375114E1,-1.275000095E0
9.378430613E1,-2.932500076E1,3.142500114E1,-1.837500095E0
9.428430613E1,-2.936250114E1,3.127500153E1,-2.625000000E0
9.478430613E1,-2.941875076E1,3.088125038E1,-3.600000143E0
9.528430613E1,-2.956875038E1,3.045000076E1,-4.350000381E0
9.578430613E1,-2.975625038E1,2.985000038E1,-5.400000095E0
9.628430613E1,-2.996250153E1,2.919375038E1,-6.337500095E0
9.678430613E1,-3.005625153E1,2.835000038E1,-7.350000381E0
9.728430613E1,-3.030000114E1,2.750625038E1,-8.268750191E0
9.778430585E1,-3.050625038E1,2.653125191E1,-8.756250381E0
9.828430585E1,-3.067500114E1,2.602500153E1,-8.906250000E0
9.878430585E1,-3.073125076E1,2.544375038E1,-9.450000763E0
9.928430585E1,-3.050625038E1,2.499375153E1,-1.042500019E1
9.978430585E1,-3.007500076E1,2.480625153E1,-1.106250000E1
1.002843058E2,-2.940000153E1,2.473125076E1,-1.203750038E1
1.007843058E2,-2.881875038E1,2.482500076E1,-1.280625057E1
1.012843058E2,-2.818125153E1,2.503125191E1,-1.286250019E1
1.017843058E2,-2.752500153E1,2.550000191E1,-1.333125019E1
1.022843058E2,-2.700000191E1,2.578125191E1,-1.408125019E1
1.027843058E2,-2.681250191E1,2.581875038E1,-1.445625019E1
1.032843058E2,-2.688750076E1,2.574375153E1,-1.473750019E1
1.037843058E2,-2.703750038E1,2.538750076E1,-1.492500019E1
1.042843058E2,-2.703750038E1,2.488125038E1,-1.522500038E1
1.047843058E2,-2.713125038E1,2.445000076E1,-1.524375057E1
1.052843058E2,-2.724375153E1,2.396250153E1,-1.558125019E1
1.057843058E2,-2.739375114E1,2.325000000E1,-1.605000114E1
1.062843058E2,-2.754375076E1,2.235000038E1,-1.636875153E1
1.067843058E2,-2.758125114E1,2.146875000E1,-1.674375153E1
1.072843058E2,-2.745000076E1,2.032500076E1,-1.771875000E1
1.077843058E2,-2.737500191E1,1.925625038E1,-1.828125000E1
1.082843058E2,-2.758125114E1,1.845000076E1,-1.816875076E1
1.087843058E2,-2.767500114E1,1.732500076E1,-1.830000114E1
1.092843058E2,-2.778750038E1,1.650000000E1,-1.809375000E1
1.097843058E2,-2.782500076E1,1.571250057E1,-1.800000000E1
1.102843058E2,-2.780625153E1,1.507500076E1,-1.756875038E1
1.107843058E2,-2.793750191E1,1.451250076E1,-1.700625038E1
1.112843058E2,-2.821875191E1,1.419375038E1,-1.535625076E1
1.117843058E2,-2.857500076E1,1.402500057E1,-1.430625057E1
1.122843058E2,-2.868750191E1,1.376250076E1,-1.250625038E1
1.127843058E2,-2.904375076E1,1.374375057E1,-1.100625038E1
1.132843058E2,-2.953125191E1,1.359375095E1,-9.843750000E0
1.137843058E2,-2.960625076E1,1.314375019E1,-1.014375019E1
1.142843058E2,-2.985000038E1,1.293750095E1,-1.012500000E1
1.147843058E2,-3.003750038E1,1.295625019E1,-9.750000000E0
1.152843058E2,-3.026250076E1,1.276875019E1,-1.020000076E1
1.157843058E2,-3.016875076E1,1.246875095E1,-1.055625057E1
1.162843058E2,-3.024375153E1,1.215000057E1,-1.215000057E1
1.167843058E2,-3.009375191E1,1.136250019E1,-1.389375019E1
1.172843058E2,-2.988750076E1,1.048125076E1,-1.490625095E1
1.177843058E2,-3.013125038E1,9.825000763E0,-1.385625076E1
1.182843058E2,-3.024375153E1,8.681250572E0,-1.327500057E1
1.187843058E2,-3.013125038E1,7.218750477E0,-1.299375057E1
1.192843058E2,-3.005625153E1,5.512500286E0,-1.269375038E1
1.197843058E2,-3.005625153E1,3.637500048E0,-1.207500076E1
1.202843058E2,-2.994375038E1,1.800000072E0,-1.156875038E1
1.207843058E2,-3.009375191E1,3.562500179E-1,-9.375000000E0
1.212843058E2,-3.011250114E1,-9.750000238E-1,-7.725000381E0
1.217843058E2,-3.001875114E1,-2.437500000E0,-7.068750381E0
1.222843058E2,-2.960625076E1,-4.012500286E0,-7.575000286E0
1.227843058E2,-2.951250076E1,-5.081250191E0,-7.537500381E0
1.232843058E2,-2.945625114E1,-5.137500286E0,-6.093750477E0
1.237843058E2,-2.940000153E1,-5.381250381E0,-5.156250000E0
1.242843058E2,-2.917500114E1,-5.568750381E0,-4.312500000E0
1.247843058E2,-2.857500076E1,-6.000000000E0,-5.756250381E0
1.252843058E2,-2.814375114E1,-6.056250095E0,-5.981250286E0
1.257843058E2,-2.775000191E1,-5.737500191E0,-5.362500191E0
1.262843058E2,-2.776875114E1,-5.568750381E0,-3.881250143E0
1.267843058E2,-2.761875153E1,-6.393750191E0,-4.950000286E0
1.272843058E2,-2.686875153E1,-8.137500763E0,-8.006250381E0
1.277843058E2,-2.613750076E1,-9.525000572E0,-1.111875057E1
1.282843058E2,-2.557500076E1,-1.102500057E1,-1.351875019E1
1.287843058E2,-2.546250153E1,-1.186875057E1,-1.500000095E1
1.292843058E2,-2.559375191E1,-1.340625095E1,-1.743750000E1
1.297843058E2,-2.581875038E1,-1.438125038E1,-1.946250153E1
1.302843058E2,-2.581875038E1,-1.460625076E1,-2.085000038E1
1.307843058E2,-2.636250114E1,-1.410000038E1,-2.006250000E1
1.312843058E2,-2.745000076E1,-1.314375019E1,-1.790625000E1
1.317843058E2,-2.859375191E1,-1.175625038E1,-1.496250057E1
1.322843058E2,-2.985000038E1,-1.010625076E1,-1.282500076E1
1.327843058E2,-3.069375038E1,-8.868750572E0,-1.063125038E1
1.332843058E2,-3.103125191E1,-7.350000381E0,-8.437500000E0
1.337843058E2,-3.131250191E1,-6.618750095E0,-7.575000286E0
1.342843058E2,-3.176250076E1,-6.262500286E0,-7.200000286E0
1.347843058E2,-3.151875114E1,-6.187500477E0,-6.937500477E0
1.352843058E2,-3.142500114E1,-6.225000381E0,-6.618750095E0
1.357843058E2,-3.123750114E1,-6.693750381E0,-6.993750095E0
1.362843058E2,-3.114375114E1,-7.368750095E0,-6.843750477E0
1.367843058E2,-3.116250038E1,-8.025000572E0,-6.562500477E0
1.372843058E2,-3.125625038E1,-8.493750572E0,-6.543750286E0
1.377843058E2,-3.121875191E1,-8.981250763E0,-6.056250095E0
1.382843058E2,-3.093750191E1,-9.112500191E0,-5.400000095E0
1.387843058E2,-3.071250153E1,-8.850000381E0,-4.650000095E0
1.392843058E2,-3.046875191E1,-8.381250381E0,-4.387500286E0
1.397843058E2,-3.045000076E1,-7.687500477E0,-3.787500143E0
1.402843058E2,-3.039375114E1,-7.275000095E0,-3.412500143E0
1.407843058E2,-3.020625114E1,-7.050000191E0,-3.487500191E0
1.412843058E2,-3.005625153E1,-6.825000286E0,-3.131250143E0
1.417843058E2,-2.998125076E1,-6.393750191E0,-2.587500095E0
1.422843058E2,-3.009375191E1,-6.300000191E0,-2.362500191E0
1.427843058E2,-3.020625114E1,-6.318750381E0,-2.381250143E0
1.432843058E2,-3.005625153E1,-6.637500286E0,-3.281250238E0
1.437843058E2,-3.000000191E1,-7.012500286E0,-3.225000143E0
1.442843058E2,-2.973750114E1,-7.143750191E0,-3.412500143E0
1.447843058E2,-2.968125153E1,-7.218750477E0,-3.150000095E0
1.452843058E2,-2.964375114E1,-7.143750191E0,-2.812500000E0
1.457843058E2,-2.966250038E1,-7.200000286E0,-2.756250143E0
1.462843058E2,-2.968125153E1,-7.218750477E0,-2.531250000E0
1.467843058E2,-2.964375114E1,-7.143750191E0,-2.287500143E0
1.472843058E2,-2.988750076E1,-7.050000191E0,-1.256250024E0
1.477843058E2,-2.988750076E1,-7.050000191E0,-1.218750000E0
1.482843058E2,-3.003750038E1,-7.050000191E0,-7.687500119E-1
1.487843058E2,-3.013125038E1,-6.918750286E0,-3.562500179E-1
1.492843058E2,-3.015000153E1,-6.900000095E0,-3.937500119E-1
1.497843058E2,-3.003750038E1,-7.050000191E0,-6.375000477E-1
1.502843058E2,-3.001875114E1,-6.993750095E0,-6.562500000E-1
1.507843058E2,-3.003750038E1,-7.087500095E0,-6.937500238E-1
1.512843058E2,-2.992500114E1,-7.050000191E0,-8.062500358E-1
1.517843058E2,-2.990625191E1,-7.031250477E0,-7.875000238E-1
1.522843058E2,-2.992500114E1,-7.012500286E0,-8.250000477E-1
1.527843058E2,-2.996250153E1,-7.031250477E0,-8.250000477E-1
1.532843058E2,-3.001875114E1,-7.031250477E0,-8.062500358E-1
1.537843058E2,-3.013125038E1,-6.881250381E0,-5.625000000E-1
1.542843058E2,-3.022500038E1,-6.900000095E0,-5.250000358E-1
1.547843058E2,-3.030000114E1,-6.862500191E0,-5.625000000E-1
1.552843058E2,-3.037500191E1,-6.881250381E0,-6.000000238E-1
1.557843058E2,-3.035625076E1,-6.975000381E0,-8.812500238E-1
1.562843058E2,-3.043125153E1,-6.956250191E0,-9.562500119E-1
1.567843058E2,-3.048750114E1,-6.975000381E0,-9.000000358E-1
1.572843061E2,-3.050625038E1,-6.956250191E0,-9.375000596E-1
1.577843061E2,-3.048750114E1,-7.031250477E0,-1.012500048E0
1.582843061E2,-3.043125153E1,-7.068750381E0,-1.031250000E0
1.587843061E2,-3.041250038E1,-7.125000477E0,-9.750000238E-1
1.592843061E2,-3.033750153E1,-7.218750477E0,-9.375000596E-1
1.597843061E2,-3.031875038E1,-7.350000381E0,-8.062500358E-1
1.602843061E2,-3.007500076E1,-7.612500191E0,-1.050000072E0
1.607843061E2,-2.979375076E1,-7.837500095E0,-1.518750072E0
1.612843061E2,-2.960625076E1,-7.893750191E0,-1.406250000E0
1.617843061E2,-2.943750191E1,-7.987500191E0,-1.050000072E0
1.622843061E2,-2.925000191E1,-8.100000381E0,-6.375000477E-1
1.627843061E2,-2.889375114E1,-8.193750381E0,-3.000000119E-1
1.632843061E2,-2.838750076E1,-8.512500763E0,-7.312500477E-1
1.637843061E2,-2.810625076E1,-8.625000000E0,-1.425000072E0
1.642843061E2,-2.806875038E1,-8.493750572E0,-1.593750119E0
1.647843061E2,-2.825625038E1,-8.400000572E0,-1.500000000E0
1.652843061E2,-2.848125076E1,-8.325000763E0,-1.631250024E0
1.657843061E2,-2.878125191E1,-8.700000763E0,-2.118750095E0
1.662843061E2,-2.883750153E1,-8.925000191E0,-2.212500095E0
1.667843061E2,-2.896875191E1,-8.925000191E0,-2.212500095E0
1.672843061E2,-2.938125038E1,-8.606250763E0,-1.575000048E0
1.677843061E2,-2.977500153E1,-8.343750000E0,-6.375000477E-1
1.682843061E2,-3.011250114E1,-8.418750763E0,1.125000045E-1
1.687843061E2,-3.013125038E1,-8.643750191E0,4.125000238E-1
1.692843061E2,-2.992500114E1,-9.150000572E0,6.937500238E-1
