"Time (s)","X (hPa)"
-5.384491667E-1,1.011765594E3
5.002038333E-1,1.011765671E3
1.538819833E0,1.011765594E3
2.577497833E0,1.011762619E3
3.616162833E0,1.011759949E3
4.654813833E0,1.011756668E3
5.166203833E0,1.011753006E3
6.204860833E0,1.011748734E3
7.243557833E0,1.011740265E3
8.282203833E0,1.011729660E3
9.320800833E0,1.011718140E3
1.035946483E1,1.011706924E3
1.139822283E1,1.011701355E3
1.243687383E1,1.011696777E3
1.347554583E1,1.011692352E3
1.451420283E1,1.011692352E3
1.555284583E1,1.011694031E3
1.659150183E1,1.011698151E3
1.763018783E1,1.011705399E3
1.866889483E1,1.011713028E3
1.970756383E1,1.011714935E3
2.074632083E1,1.011714935E3
2.178507583E1,1.011709747E3
2.282380883E1,1.011701584E3
2.386251283E1,1.011690750E3
2.490124483E1,1.011681366E3
2.594003683E1,1.011668854E3
2.697881083E1,1.011648178E3
2.801757383E1,1.011623764E3
2.905636383E1,1.011602631E3
3.009515683E1,1.011585541E3
3.113394983E1,1.011568680E3
3.217272483E1,1.011557159E3
3.321154783E1,1.011547012E3
3.425031883E1,1.011537552E3
3.528911883E1,1.011536942E3
3.632787083E1,1.011536942E3
3.736667383E1,1.011543427E3
3.840547683E1,1.011557999E3
3.944428483E1,1.011574783E3
4.048306383E1,1.011580963E3
4.152175383E1,1.011580963E3
4.256040283E1,1.011573334E3
4.359910083E1,1.011557541E3
4.463782483E1,1.011540375E3
4.567655483E1,1.011522293E3
4.671530583E1,1.011505432E3
4.775397683E1,1.011492691E3
4.879263983E1,1.011480637E3
4.983136683E1,1.011471100E3
5.087015383E1,1.011466675E3
5.190890783E1,1.011466675E3
5.294762283E1,1.011469269E3
5.398639783E1,1.011469269E3
5.502516683E1,1.011467361E3
5.606398283E1,1.011458206E3
5.710279483E1,1.011436310E3
5.814159483E1,1.011408768E3
5.918036783E1,1.011382675E3
6.021916183E1,1.011349335E3
6.125791083E1,1.011309738E3
6.229671383E1,1.011267090E3
6.333552183E1,1.011232986E3
6.437433983E1,1.011216049E3
6.541309683E1,1.011212234E3
6.645183183E1,1.011212234E3
6.749057383E1,1.011240082E3
6.852935483E1,1.011269302E3
6.956813583E1,1.011281967E3
7.060687583E1,1.011301041E3
7.164567483E1,1.011320114E3
7.268437783E1,1.011335449E3
7.372307883E1,1.011353531E3
7.476183483E1,1.011375580E3
7.580059483E1,1.011398163E3
7.683937783E1,1.011417313E3
7.787807483E1,1.011430359E3
7.891681583E1,1.011442795E3
7.995555983E1,1.011454010E3
8.099437783E1,1.011460724E3
8.203311783E1,1.011463776E3
8.307185983E1,1.011463776E3
8.411061483E1,1.011463776E3
8.514945083E1,1.011462021E3
8.618820083E1,1.011461563E3
8.722698483E1,1.011461105E3
8.826581083E1,1.011460190E3
8.930465483E1,1.011459045E3
9.034341883E1,1.011458054E3
9.138217783E1,1.011452332E3
9.242093183E1,1.011452332E3
9.345968983E1,1.011453629E3
9.449840883E1,1.011457596E3
9.553712083E1,1.011457672E3
9.657573883E1,1.011457672E3
9.761448183E1,1.011457520E3
9.865318883E1,1.011455383E3
9.969188083E1,1.011451187E3
1.007305828E2,1.011446609E3
1.017693008E2,1.011445084E3
1.028080068E2,1.011443787E3
1.038466718E2,1.011441727E3
1.048853928E2,1.011441727E3
1.059240988E2,1.011441727E3
1.069627828E2,1.011443329E3
1.080014458E2,1.011443329E3
1.090401918E2,1.011442719E3
1.100789088E2,1.011440201E3
1.111176818E2,1.011434784E3
1.121565198E2,1.011428909E3
1.131953338E2,1.011424332E3
1.142340698E2,1.011420059E3
1.152728058E2,1.011417084E3
1.163115708E2,1.011414719E3
1.173503428E2,1.011414719E3
1.183891108E2,1.011415329E3
1.194278708E2,1.011418762E3
1.204666258E2,1.011422348E3
1.215054478E2,1.011425476E3
1.225442768E2,1.011425476E3
1.235831178E2,1.011424713E3
1.246219948E2,1.011421585E3
1.256608228E2,1.011411819E3
1.266996308E2,1.011399002E3
1.277384458E2,1.011390381E3
1.287772658E2,1.011384354E3
1.298160308E2,1.011376190E3
1.308548608E2,1.011372604E3
1.318937218E2,1.011369934E3
1.329325918E2,1.011363449E3
1.339715198E2,1.011350861E3
1.350103998E2,1.011342239E3
1.360492828E2,1.011328201E3
1.370881388E2,1.011312408E3
1.381270048E2,1.011295090E3
1.391659108E2,1.011279221E3
1.402048508E2,1.011257629E3
1.412437328E2,1.011244736E3
1.422826318E2,1.011240768E3
1.433215068E2,1.011237793E3
1.443603038E2,1.011232834E3
1.453991148E2,1.011231766E3
1.464378818E2,1.011230774E3
1.474767288E2,1.011229248E3
1.485156218E2,1.011229248E3
1.495544758E2,1.011231613E3
1.505933198E2,1.011233673E3
1.516321588E2,1.011233902E3
1.526709768E2,1.011234436E3
1.537097708E2,1.011239700E3
1.547486398E2,1.011246490E3
1.557874748E2,1.011251450E3
1.568263178E2,1.011251984E3
1.578651828E2,1.011251450E3
1.589040998E2,1.011249390E3
1.599430778E2,1.011244202E3
1.609820228E2,1.011240387E3
1.620209268E2,1.011240082E3
1.630598208E2,1.011234818E3
1.640987348E2,1.011228027E3
1.651376228E2,1.011224365E3
1.661765888E2,1.011220932E3
1.672154768E2,1.011220932E3
1.682544388E2,1.011224747E3
1.692934118E2,1.011239624E3
1.703324368E2,1.011259460E3
1.713715048E2,1.011288071E3
1.724105258E2,1.011325455E3
1.734495148E2,1.011356430E3
1.744885068E2,1.011370087E3
1.755275228E2,1.011373825E3
1.765665048E2,1.011373825E3
1.776054868E2,1.011356659E3
1.786444718E2,1.011333466E3
1.796834708E2,1.011315765E3
1.807224738E2,1.011288376E3
1.817613918E2,1.011264572E3
1.828003878E2,1.011235428E3
1.838394038E2,1.011203003E3
1.848783908E2,1.011154175E3
1.859173628E2,1.011106644E3
1.869562908E2,1.011068802E3
1.879952448E2,1.011035004E3
1.890341858E2,1.011006165E3
1.900731848E2,1.010997314E3
1.911121048E2,1.010989151E3
1.921510918E2,1.010969009E3
1.931900928E2,1.010945129E3
1.942290478E2,1.010914383E3
1.952679968E2,1.010879669E3
1.963069608E2,1.010844650E3
1.973459148E2,1.010810394E3
1.983848138E2,1.010776291E3
1.994237298E2,1.010749588E3
2.004626788E2,1.010729904E3
2.015016868E2,1.010721664E3
2.025406758E2,1.010721664E3
2.035796298E2,1.010723648E3
2.046186018E2,1.010727005E3
2.056576158E2,1.010729446E3
2.066966488E2,1.010733948E3
2.077356898E2,1.010740662E3
2.087746538E2,1.010755539E3
2.098136788E2,1.010774765E3
2.108527558E2,1.010789566E3
2.118917968E2,1.010797119E3
2.129307938E2,1.010807724E3
2.139698258E2,1.010825043E3
2.150088488E2,1.010845108E3
2.160478648E2,1.010877380E3
2.170868968E2,1.010915070E3
2.181259428E2,1.010954971E3
2.191649298E2,1.010984192E3
2.202039788E2,1.011015778E3
2.212430538E2,1.011061020E3
2.222821338E2,1.011119308E3
2.233212008E2,1.011184769E3
2.243602278E2,1.011258316E3
2.253992518E2,1.011327057E3
2.264383478E2,1.011380081E3
2.274774118E2,1.011407776E3
2.285164408E2,1.011417923E3
2.295555078E2,1.011417923E3
2.305945368E2,1.011408081E3
2.316335558E2,1.011395645E3
2.326725758E2,1.011389389E3
2.337116388E2,1.011386642E3
2.347506578E2,1.011384430E3
2.357896708E2,1.011384048E3
2.368286998E2,1.011384048E3
2.378677508E2,1.011384888E3
2.389068268E2,1.011385880E3
2.399458918E2,1.011386414E3
2.409848868E2,1.011386414E3
2.420239128E2,1.011385880E3
2.430629818E2,1.011383591E3
2.441019998E2,1.011381683E3
2.451409428E2,1.011379395E3
2.461798468E2,1.011377335E3
2.472187848E2,1.011375961E3
2.482577898E2,1.011374969E3
2.492967868E2,1.011367569E3
2.503357968E2,1.011353760E3
2.513747908E2,1.011330719E3
2.524137308E2,1.011294479E3
2.534527138E2,1.011255569E3
2.544916418E2,1.011223450E3
2.555305928E2,1.011203232E3
2.565695478E2,1.011203232E3
2.576084838E2,1.011205978E3
2.586474778E2,1.011218185E3
2.596865018E2,1.011218185E3
2.607255088E2,1.011214676E3
2.617645088E2,1.011202927E3
2.628035288E2,1.011199799E3
2.638425268E2,1.011199799E3
2.648815438E2,1.011226349E3
2.659205378E2,1.011268539E3
2.669595308E2,1.011314392E3
2.679985448E2,1.011360397E3
2.690374858E2,1.011397476E3
2.700764568E2,1.011417160E3
2.711154638E2,1.011422729E3
2.721544808E2,1.011422729E3
2.731934228E2,1.011419754E3
2.742324178E2,1.011411819E3
2.752713718E2,1.011405487E3
2.763103228E2,1.011403656E3
2.773493428E2,1.011401520E3
2.783883408E2,1.011401443E3
2.794273468E2,1.011393967E3
2.804663498E2,1.011383362E3
2.815053018E2,1.011362915E3
2.825442698E2,1.011336670E3
2.835832538E2,1.011296844E3
2.846222078E2,1.011253738E3
2.856611748E2,1.011209259E3
2.867001898E2,1.011141815E3
2.877392278E2,1.011070862E3
2.887782158E2,1.011027069E3
2.898171618E2,1.010993347E3
2.908561668E2,1.010962601E3
2.918951378E2,1.010962601E3
2.929341908E2,1.010973587E3
2.939732968E2,1.010975952E3
2.950123518E2,1.010976410E3
2.960514088E2,1.010984650E3
2.970904718E2,1.010988541E3
2.981294908E2,1.010988541E3
2.991685108E2,1.011000214E3
3.002075518E2,1.011000214E3
3.012466098E2,1.011003494E3
3.022856808E2,1.011003494E3
3.033247758E2,1.011014175E3
3.043638968E2,1.011014175E3
3.054030188E2,1.011014709E3
3.064421338E2,1.011024933E3
3.074811848E2,1.011030579E3
3.085202548E2,1.011032410E3
3.095593208E2,1.011037521E3
3.105983418E2,1.011054688E3
3.116373418E2,1.011067581E3
3.126763608E2,1.011075134E3
3.137154058E2,1.011088181E3
3.147544378E2,1.011095123E3
3.157934678E2,1.011095428E3
3.168325798E2,1.011095428E3
3.178716138E2,1.011095428E3
3.189106868E2,1.011092758E3
3.199497308E2,1.011079330E3
3.209887698E2,1.011053238E3
3.220278388E2,1.011012497E3
3.230669138E2,1.010970535E3
3.241059858E2,1.010926666E3
3.251450538E2,1.010887985E3
3.261841648E2,1.010858536E3
3.272232558E2,1.010839844E3
3.282623528E2,1.010824280E3
3.293014408E2,1.010818634E3
3.303404848E2,1.010818634E3
3.313795668E2,1.010822830E3
3.324187078E2,1.010823212E3
3.334577818E2,1.010823212E3
3.344968598E2,1.010817413E3
3.355359588E2,1.010806885E3
3.365750338E2,1.010793915E3
3.376141618E2,1.010774078E3
3.386533378E2,1.010754623E3
3.396924578E2,1.010736084E3
3.407315898E2,1.010720596E3
3.417707438E2,1.010705795E3
3.428099078E2,1.010697098E3
3.438490088E2,1.010691223E3
3.448880898E2,1.010680618E3
3.459272188E2,1.010665894E3
3.469663828E2,1.010650024E3
3.480055218E2,1.010632248E3
3.490447278E2,1.010627670E3
3.500839178E2,1.010627670E3
3.511230638E2,1.010645523E3
3.521621968E2,1.010670242E3
3.532013688E2,1.010705566E3
3.542405228E2,1.010744781E3
3.552797058E2,1.010773849E3
3.563188768E2,1.010805130E3
3.573580338E2,1.010843430E3
3.583972428E2,1.010895309E3
3.594364188E2,1.010956726E3
3.604756008E2,1.011026230E3
3.615147628E2,1.011101074E3
3.625538758E2,1.011169891E3
3.635930288E2,1.011218948E3
3.646322328E2,1.011244736E3
3.656714528E2,1.011253738E3
3.667106958E2,1.011256561E3
3.677499618E2,1.011256561E3
3.687892088E2,1.011251526E3
3.698284058E2,1.011241684E3
3.708676168E2,1.011220398E3
3.719068188E2,1.011205215E3
3.729460448E2,1.011184006E3
3.739852798E2,1.011161346E3
3.750245328E2,1.011146927E3
3.760637178E2,1.011142960E3
3.771029178E2,1.011130524E3
3.781421338E2,1.011111755E3
3.791813598E2,1.011101379E3
3.802206388E2,1.011081085E3
3.812598658E2,1.011049728E3
3.822991628E2,1.011032333E3
3.833384818E2,1.011010513E3
3.843778518E2,1.010980606E3
3.854171868E2,1.010954056E3
3.864564838E2,1.010953751E3
3.874958248E2,1.010953751E3
3.885351358E2,1.010959930E3
3.895744338E2,1.010970612E3
3.906136838E2,1.011006851E3
3.916529248E2,1.011042557E3
3.926921278E2,1.011061249E3
3.937313288E2,1.011080780E3
3.947705668E2,1.011080780E3
3.958097738E2,1.011073380E3
3.968490158E2,1.011036530E3
3.978882588E2,1.011007309E3
3.989275348E2,1.010961304E3
3.999667498E2,1.010938950E3
4.010059758E2,1.010937653E3
4.020452528E2,1.010893021E3
4.030845718E2,1.010853271E3
4.041239108E2,1.010839996E3
4.051632068E2,1.010815277E3
4.062025138E2,1.010760040E3
4.072418468E2,1.010734482E3
4.082811828E2,1.010726624E3
4.093204998E2,1.010712662E3
4.103597778E2,1.010681458E3
4.113991468E2,1.010672607E3
4.124384938E2,1.010672607E3
4.134777918E2,1.010678864E3
4.145171348E2,1.010683060E3
4.155565238E2,1.010696335E3
4.165959768E2,1.010696335E3
4.176354318E2,1.010683823E3
4.186748858E2,1.010673370E3
4.197143088E2,1.010673370E3
4.207537428E2,1.010651016E3
4.217932178E2,1.010651016E3
4.228326878E2,1.010672607E3
4.238721668E2,1.010678024E3
4.249116508E2,1.010678024E3
4.259510998E2,1.010693970E3
4.269905558E2,1.010711899E3
4.280299888E2,1.010723038E3
4.290694718E2,1.010723038E3
4.301089068E2,1.010697250E3
4.311483388E2,1.010662918E3
4.321878198E2,1.010641174E3
4.332273208E2,1.010623169E3
4.342667558E2,1.010595779E3
4.353061038E2,1.010579300E3
4.363454238E2,1.010579300E3
4.373848088E2,1.010610275E3
4.384241308E2,1.010638199E3
4.394634318E2,1.010670853E3
4.405027908E2,1.010729904E3
4.415421798E2,1.010787354E3
4.425816308E2,1.010789719E3
4.436211198E2,1.010789719E3
4.446605878E2,1.010747681E3
4.456999828E2,1.010716476E3
4.467394298E2,1.010699997E3
4.477789018E2,1.010691605E3
4.488183408E2,1.010691605E3
4.498577728E2,1.010750504E3
4.508972078E2,1.010750504E3
4.519366838E2,1.010748520E3
4.529761508E2,1.010739288E3
4.540155898E2,1.010729752E3
4.550550198E2,1.010729752E3
4.560944398E2,1.010729752E3
4.571338718E2,1.010762787E3
4.581733218E2,1.010782700E3
4.592127148E2,1.010782700E3
4.602521998E2,1.010771255E3
4.612916478E2,1.010762177E3
4.623311058E2,1.010762177E3
4.633705438E2,1.010762177E3
4.644099908E2,1.010741272E3
4.654494938E2,1.010709915E3
4.664890178E2,1.010677719E3
4.675284928E2,1.010631714E3
4.685679468E2,1.010578384E3
4.696074588E2,1.010540619E3
4.706470038E2,1.010514450E3
4.716865258E2,1.010483475E3
4.727260398E2,1.010452347E3
4.737655458E2,1.010423737E3
4.748050188E2,1.010380249E3
4.758444918E2,1.010326462E3
4.768839448E2,1.010263519E3
4.779233708E2,1.010227356E3
4.789628248E2,1.010205917E3
4.800023138E2,1.010205917E3
4.810417898E2,1.010221634E3
4.820813418E2,1.010268097E3
4.831209178E2,1.010297546E3
4.841604248E2,1.010312500E3
4.851999988E2,1.010329056E3
4.862395508E2,1.010357285E3
4.872790908E2,1.010376282E3
4.883186478E2,1.010403290E3
4.893581798E2,1.010418243E3
4.903977448E2,1.010433502E3
4.914373168E2,1.010464172E3
4.924769428E2,1.010484390E3
4.935165818E2,1.010509491E3
4.945562028E2,1.010537033E3
4.955958138E2,1.010561600E3
4.966353798E2,1.010572815E3
4.976750488E2,1.010597153E3
4.987147518E2,1.010602264E3
4.997544658E2,1.010610580E3
5.007941718E2,1.010632477E3
5.018338748E2,1.010644760E3
5.028735768E2,1.010644760E3
5.039132328E2,1.010622559E3
5.049529288E2,1.010608368E3
5.059926018E2,1.010589828E3
5.070322548E2,1.010552444E3
5.080719748E2,1.010552444E3
5.091116238E2,1.010556793E3
5.101512618E2,1.010584717E3
5.111908798E2,1.010625000E3
5.122304218E2,1.010655975E3
5.132700078E2,1.010655975E3
5.143095708E2,1.010645142E3
5.153491348E2,1.010630417E3
5.163886928E2,1.010592041E3
5.174282798E2,1.010592041E3
5.184678828E2,1.010613556E3
5.195075928E2,1.010634689E3
5.205472418E2,1.010644531E3
5.215868818E2,1.010692291E3
5.226265018E2,1.010696106E3
5.236661598E2,1.010696106E3
5.247057618E2,1.010616455E3
5.257453908E2,1.010547714E3
5.267850808E2,1.010434647E3
5.278247068E2,1.010360413E3
5.288643258E2,1.010360413E3
5.299039258E2,1.010451584E3
5.309435808E2,1.010509644E3
5.319833188E2,1.010574112E3
5.330230628E2,1.010609894E3
5.340628088E2,1.010609894E3
5.351025068E2,1.010521698E3
5.361421798E2,1.010472794E3
5.371818758E2,1.010438232E3
5.382215378E2,1.010398483E3
5.392611838E2,1.010347061E3
5.403008718E2,1.010321884E3
5.413405578E2,1.010289536E3
5.423802598E2,1.010232086E3
5.434199628E2,1.010155411E3
5.444596068E2,1.010068436E3
5.454992798E2,1.010008545E3
5.465389118E2,1.009969864E3
5.475785268E2,1.009944077E3
5.486180598E2,1.009927292E3
5.496576658E2,1.009910812E3
5.506972778E2,1.009850082E3
5.517368868E2,1.009782715E3
5.527765128E2,1.009718475E3
5.538161768E2,1.009690094E3
5.548558508E2,1.009690094E3
5.558954908E2,1.009716721E3
5.569350508E2,1.009758224E3
5.579746408E2,1.009819260E3
5.590142948E2,1.009864578E3
5.600540128E2,1.009877167E3
5.610936718E2,1.009919357E3
5.621333508E2,1.009978638E3
5.631730568E2,1.010043869E3
5.642128138E2,1.010105133E3
5.652525878E2,1.010179367E3
5.662923048E2,1.010260239E3
5.673320108E2,1.010324326E3
5.683716788E2,1.010356140E3
5.694113618E2,1.010381088E3
5.704510878E2,1.010400314E3
5.714908308E2,1.010400314E3
5.725306138E2,1.010395660E3
5.735703248E2,1.010395660E3
5.746100708E2,1.010409775E3
5.756497678E2,1.010419006E3
5.766895308E2,1.010441513E3
5.777293048E2,1.010467529E3
5.787690858E2,1.010467682E3
5.798088678E2,1.010471268E3
5.808486088E2,1.010467682E3
5.818883128E2,1.010463486E3
5.829280478E2,1.010444412E3
5.839677158E2,1.010414810E3
5.850074198E2,1.010381775E3
5.860470678E2,1.010321503E3
5.870867418E2,1.010252533E3
5.881264848E2,1.010165787E3
5.891661798E2,1.010077972E3
5.902058428E2,1.009968948E3
5.912455728E2,1.009869156E3
5.922853608E2,1.009757767E3
5.933251638E2,1.009651794E3
5.943648768E2,1.009557266E3
5.954045838E2,1.009461823E3
5.964442928E2,1.009364624E3
5.974840898E2,1.009261475E3
5.985238868E2,1.009135208E3
5.995636408E2,1.008994904E3
6.006033848E2,1.008854141E3
6.016431788E2,1.008726654E3
6.026829388E2,1.008610382E3
6.037227288E2,1.008509750E3
6.047624598E2,1.008410873E3
6.058022518E2,1.008329010E3
6.068420158E2,1.008254242E3
6.078817478E2,1.008154831E3
6.089214768E2,1.008100357E3
6.099611918E2,1.008061142E3
6.110009018E2,1.008023300E3
6.120405648E2,1.007976837E3
6.130803028E2,1.007968521E3
6.141200498E2,1.007945328E3
6.151598278E2,1.007929306E3
6.161995798E2,1.007929306E3
6.172393658E2,1.007961960E3
6.182790638E2,1.008024292E3
6.193188268E2,1.008117752E3
6.203586178E2,1.008227234E3
6.213983878E2,1.008364639E3
6.224382688E2,1.008494339E3
6.234781138E2,1.008613663E3
6.245179268E2,1.008727646E3
6.255577058E2,1.008827209E3
6.265975218E2,1.008937454E3
6.276373648E2,1.009044724E3
6.286771828E2,1.009153366E3
6.297169778E2,1.009258652E3
6.307568498E2,1.009371872E3
6.317966428E2,1.009494705E3
6.328365308E2,1.009630585E3
6.338763618E2,1.009764175E3
6.349162648E2,1.009882202E3
6.359561568E2,1.009994736E3
6.369960078E2,1.010080414E3
6.380358788E2,1.010152130E3
6.390757218E2,1.010221481E3
6.401155408E2,1.010283737E3
6.411553048E2,1.010336990E3
6.421951168E2,1.010378571E3
6.432349768E2,1.010404816E3
6.442748578E2,1.010404816E3
6.453146668E2,1.010399094E3
6.463545298E2,1.010381699E3
6.473943958E2,1.010381088E3
6.484343148E2,1.010360870E3
6.494742238E2,1.010326843E3
6.505140878E2,1.010299149E3
6.515539408E2,1.010272751E3
6.525938068E2,1.010248184E3
6.536336988E2,1.010212631E3
6.546735978E2,1.010211182E3
6.557134798E2,1.010203552E3
6.567533498E2,1.010192490E3
6.577931868E2,1.010175095E3
6.588330108E2,1.010174408E3
6.598728958E2,1.010160294E3
6.609127358E2,1.010154266E3
6.619525488E2,1.010154266E3
6.629923968E2,1.010157928E3
6.640322878E2,1.010171127E3
6.650721968E2,1.010192642E3
6.661121058E2,1.010236664E3
6.671520618E2,1.010284882E3
6.681920358E2,1.010328522E3
6.692319608E2,1.010353241E3
6.702718768E2,1.010380554E3
6.713117038E2,1.010398636E3
6.723515328E2,1.010403976E3
6.733913318E2,1.010405197E3
6.744311188E2,1.010423279E3
6.754709128E2,1.010439224E3
6.765106358E2,1.010445099E3
6.775503568E2,1.010446396E3
6.785900908E2,1.010446396E3
6.796298168E2,1.010442047E3
6.806694798E2,1.010422821E3
6.817091988E2,1.010406113E3
6.827488998E2,1.010388184E3
6.837886198E2,1.010385284E3
6.848283368E2,1.010385284E3
6.858680378E2,1.010387039E3
6.869077768E2,1.010387039E3
6.879474798E2,1.010385818E3
6.889871708E2,1.010360336E3
6.900269088E2,1.010330811E3
6.910666338E2,1.010302963E3
6.921063848E2,1.010281296E3
6.931461368E2,1.010272675E3
6.941858808E2,1.010270386E3
6.952256288E2,1.010262604E3
6.962653658E2,1.010243912E3
6.973051808E2,1.010213318E3
6.983449878E2,1.010162888E3
6.993847708E2,1.010102158E3
7.004245738E2,1.010030289E3
7.014643758E2,1.009980316E3
7.025041618E2,1.009950409E3
7.035439668E2,1.009950409E3
7.045838538E2,1.009954834E3
7.056237548E2,1.009987946E3
7.066635658E2,1.010010147E3
7.077033588E2,1.010033722E3
7.087431758E2,1.010038223E3
7.097830678E2,1.010046921E3
7.108229128E2,1.010065308E3
7.118627888E2,1.010082016E3
7.129027428E2,1.010093842E3
7.139425718E2,1.010136337E3
7.149823958E2,1.010205917E3
7.160222558E2,1.010285492E3
7.170620528E2,1.010362320E3
7.181019008E2,1.010435486E3
7.191417578E2,1.010514069E3
7.201816238E2,1.010588303E3
7.212215008E2,1.010639801E3
7.222614118E2,1.010685272E3
7.233012898E2,1.010737076E3
7.243412118E2,1.010757751E3
7.253811048E2,1.010757751E3
7.264210038E2,1.010752029E3
7.274609248E2,1.010752029E3
7.285008308E2,1.010751572E3
7.295407738E2,1.010752563E3
7.305806858E2,1.010770416E3
7.316205888E2,1.010804749E3
7.326604868E2,1.010845184E3
7.337004058E2,1.010900345E3
7.347402558E2,1.010964584E3
7.357801578E2,1.011023636E3
7.368200738E2,1.011060181E3
7.378600018E2,1.011089249E3
7.388999668E2,1.011123657E3
